0,-3.88
2,-13.52
5,-32.80
7,-50.94
10,-31.14
13,81.73
16,332.04
19,718.34
22,1178.28
25,1608.80
28,1915.29
31,2059.31
34,2073.35
37,2031.73
40,2000.17
43,2000.44
46,2014.83
49,2020.42
52,2008.38
55,1994.20
58,1994.93
61,2009.85
64,2021.59
67,2016.57
70,2000.92
73,1993.50
76,2004.28
79,2022.54
82,2028.96
85,2017.55
88,2002.54
91,2001.80
94,2016.55
97,2030.01
100,2026.90
103,2011.30
106,2002.01
109,2010.93
112,2029.31
115,2037.33
118,2026.65
121,2009.82
124,2006.04
127,2019.26
130,2033.96
133,2033.13
136,2017.82
139,2005.72
142,2010.74
145,2026.85
148,2035.10
151,2025.31
154,2007.98
157,2002.28
160,2014.06
163,2029.24
166,2030.20
169,2016.26
172,2004.73
175,2011.03
177,2030.76
180,2044.23
183,2038.79
186,2023.82
189,2021.22
192,2040.98
195,2068.54
198,2079.06
201,2063.21
204,2036.77
207,2023.96
210,2032.74
213,2048.57
216,2052.75
219,2043.66
222,2037.58
225,2049.17
228,2073.74
231,2091.75
234,2090.57
237,2078.58
240,2075.40
243,2089.63
246,2109.76
249,2117.74
252,2110.10
255,2101.74
258,2108.20
261,2127.04
264,2140.06
267,2133.79
270,2114.98
274,2103.05
276,2107.68
279,2117.61
282,2113.47
285,2090.37
288,2064.23
291,2054.55
294,2063.17
297,2072.69
300,2066.42
303,2047.13
306,2033.30
309,2037.38
312,2051.32
315,2055.65
318,2041.96
321,2022.68
324,2016.88
327,2028.32
330,2041.24
333,2038.54
336,2021.53
339,2008.64
342,2014.34
345,2032.70
348,2044.02
351,2037.18
354,2022.04
357,2017.76
360,2030.53
363,2046.32
366,2046.70
369,2029.83
372,2012.51
375,2010.79
378,2022.43
381,2031.44
384,2030.55
387,2035.86
390,2077.00
393,2173.48
396,2321.97
399,2507.12
402,2717.62
405,2944.51
408,3162.57
411,3319.15
414,3351.97
417,3227.96
420,2969.65
423,2643.91
426,2323.34
429,2053.90
432,1852.19
435,1722.68
438,1669.14
441,1686.85
444,1751.38
447,1825.06
450,1879.10
453,1910.85
456,1937.16
459,1970.55
462,2004.16
465,2021.16
468,2016.37
471,2004.76
474,2006.48
477,2025.44
480,2046.08
483,2051.51
486,2043.07
489,2038.23
492,2050.28
495,2072.60
498,2086.15
501,2081.41
504,2069.56
507,2069.78
510,2087.45
513,2107.85
516,2112.94
519,2102.01
522,2092.38
525,2099.59
528,2119.69
531,2133.83
534,2130.07
537,2117.12
540,2114.56
543,2130.33
546,2151.65
549,2159.55
552,2150.48
555,2140.09
558,2145.24
561,2164.62
564,2180.46
567,2179.00
570,2166.35
573,2161.29
576,2173.78
579,2193.60
582,2202.40
585,2195.02
588,2185.71
591,2191.57
594,2212.53
597,2231.33
600,2233.23
603,2223.32
606,2221.09
609,2238.18
612,2265.02
615,2281.26
618,2278.82
621,2270.83
624,2276.65
627,2299.81
630,2324.27
633,2332.70
636,2326.31
639,2322.97
642,2336.54
645,2360.93
648,2377.29
651,2375.79
654,2366.81
657,2368.78
660,2386.52
663,2405.41
666,2408.03
669,2394.30
672,2381.91
675,2386.13
678,2402.61
681,2412.30
684,2402.95
687,2382.60
689,2369.22
692,2368.97
695,2367.74
698,2346.12
701,2302.06
704,2255.41
707,2228.18
710,2221.42
713,2214.12
716,2185.57
719,2136.87
722,2088.97
725,2059.77
728,2046.15
731,2029.71
734,1998.86
737,1961.96
740,1937.45
743,1932.15
746,1933.29
749,1923.23
752,1900.02
755,1880.02
758,1878.95
761,1893.65
764,1905.11
767,1899.59
770,1884.01
773,1877.68
776,1890.01
779,1909.71
782,1917.67
786,1908.88
788,1898.26
791,1903.19
794,1923.74
797,1942.21
800,1943.22
803,1931.15
806,1924.90
809,1936.05
812,1955.62
815,1964.26
818,1954.66
821,1940.23
824,1939.75
827,1956.22
830,1973.51
833,1975.01
836,1962.75
839,1954.82
842,1964.68
845,1985.29
848,1996.95
851,1989.71
854,1974.77
857,1971.71
860,1986.44
863,2004.55
866,2007.99
869,1995.61
872,1984.04
875,1988.47
878,2004.98
881,2015.26
884,2007.88
887,1991.72
890,1985.85
893,1997.58
896,2013.92
899,2016.26
902,2001.70
905,1986.47
908,1987.69
911,2003.99
914,2017.35
917,2013.74
920,1998.95
923,1991.62
926,2001.30
929,2017.36
932,2021.37
935,2008.52
938,1993.68
941,1994.57
944,2011.63
947,2027.12
950,2025.25
953,2009.98
956,2000.19
959,2007.84
962,2024.28
965,2030.36
968,2018.50
971,2001.83
974,1999.21
977,2013.85
980,2029.59
983,2029.31
986,2014.40
989,2003.01
992,2009.20
995,2026.70
998,2036.43
1001,2028.30
1004,2012.69
1007,2008.23
1010,2020.10
1013,2034.05
1016,2032.93
1019,2016.94
1022,2003.83
1025,2008.98
1028,2027.83
1031,2040.80
1034,2035.29
1037,2019.67
1040,2013.37
1043,2024.73
1046,2041.77
1049,2046.25
1052,2034.96
1055,2023.10
1058,2026.54
1061,2043.19
1064,2055.22
1067,2049.58
1070,2033.04
1073,2024.69
1076,2034.10
1079,2050.40
1082,2054.97
1085,2042.81
1088,2028.53
1091,2029.49
1094,2045.71
1097,2059.61
1100,2056.09
1103,2039.78
1106,2029.82
1109,2038.00
1112,2055.50
1115,2062.99
1118,2052.86
1121,2037.81
1124,2036.08
1127,2050.58
1130,2065.80
1133,2066.03
1136,2054.18
1139,2048.84
1142,2063.09
1145,2089.07
1148,2106.08
1151,2103.11
1154,2090.48
1157,2087.60
1160,2101.06
1163,2118.16
1166,2122.79
1169,2114.68
1172,2109.91
1175,2121.60
1178,2143.63
1181,2156.40
1184,2148.42
1187,2129.17
1190,2118.21
1193,2123.02
1196,2130.59
1199,2122.80
1201,2098.06
1204,2073.63
1207,2066.93
1210,2075.58
1213,2079.50
1216,2063.14
1219,2033.86
1222,2015.27
1225,2022.24
1228,2044.91
1231,2058.88
1234,2050.60
1237,2030.63
1240,2020.55
1243,2029.09
1246,2043.54
1249,2045.36
1252,2031.29
1255,2017.10
1258,2018.99
1261,2034.61
1264,2045.58
1267,2038.31
1270,2019.59
1273,2009.27
1276,2017.92
1279,2035.17
1282,2041.75
1285,2031.18
1288,2016.31
1291,2013.68
1294,2024.13
1298,2033.60
1300,2033.20
1303,2036.24
1306,2072.03
1309,2162.45
1312,2307.00
1315,2490.69
1318,2701.41
1321,2931.23
1324,3158.10
1327,3331.25
1330,3385.03
1333,3278.20
1336,3025.92
1339,2694.25
1342,2361.68
1345,2081.35
1348,1872.37
1351,1736.95
1354,1676.29
1357,1686.86
1360,1747.66
1363,1822.24
1366,1878.97
1369,1910.82
1372,1933.56
1375,1963.05
1378,1996.59
1381,2017.68
1384,2017.46
1387,2007.44
1390,2008.12
1393,2026.88
1396,2050.10
1399,2058.89
1402,2050.77
1405,2042.47
1408,2050.66
1411,2072.85
1414,2090.15
1417,2088.94
1420,2076.36
1423,2072.20
1426,2086.21
1429,2107.00
1432,2115.16
1435,2105.69
1438,2093.64
1441,2096.95
1444,2115.96
1447,2133.01
1450,2132.87
1453,2120.20
1456,2114.41
1459,2127.22
1462,2149.14
1465,2160.12
1468,2152.25
1471,2138.72
1474,2138.51
1477,2154.86
1480,2171.85
1483,2173.02
1486,2160.59
1489,2153.30
1492,2165.29
1495,2190.01
1498,2207.78
1501,2207.76
1504,2199.58
1507,2200.94
1509,2216.43
1512,2232.43
1515,2233.52
1518,2222.17
1521,2218.20
1524,2237.35
1527,2272.28
1530,2298.07
1533,2297.53
1536,2279.31
1539,2268.94
1542,2282.05
1545,2309.41
1548,2328.66
1551,2329.67
1554,2324.75
1557,2333.38
1560,2359.38
1563,2385.84
1566,2394.13
1569,2385.08
1572,2377.92
1575,2388.17
1578,2409.97
1581,2422.89
1584,2415.42
1587,2398.39
1590,2392.45
1593,2404.29
1596,2418.70
1599,2415.74
1602,2393.16
1605,2368.69
1607,2359.12
1610,2360.67
1613,2352.63
1615,2321.23
1618,2276.33
1621,2242.65
1624,2233.55
1627,2235.21
1630,2219.41
1633,2172.64
1636,2110.65
1639,2063.25
1642,2045.02
1645,2042.43
1648,2030.21
1651,1998.37
1654,1961.20
1657,1940.24
1660,1939.83
1663,1943.20
1666,1931.54
1669,1905.86
1672,1885.49
1675,1885.79
1678,1900.38
1681,1908.44
1684,1898.48
1687,1881.47
1690,1878.06
1693,1894.48
1696,1915.14
1699,1919.93
1702,1906.94
1705,1894.49
1708,1900.11
1712,1921.13
1714,1938.03
1717,1937.35
1719,1926.96
1722,1926.25
1725,1942.70
1728,1961.48
1731,1960.96
1734,1937.86
1737,1913.58
1740,1913.55
1743,1941.31
1746,1974.62
1749,1988.13
1752,1978.36
1755,1964.72
1758,1966.67
1761,1982.76
1764,1994.32
1767,1987.84
1770,1970.81
1773,1963.45
1776,1975.59
1779,1995.75
1782,2004.22
1785,1995.39
1788,1983.53
1791,1985.93
1794,2002.59
1797,2016.41
1800,2012.95
1803,1997.48
1806,1988.99
1810,1998.39
1812,2015.78
1815,2021.59
1818,2008.80
1821,1990.95
1824,1986.57
1827,1998.32
1830,2010.33
1833,2006.87
1836,1990.74
1839,1980.06
1842,1987.22
1845,2004.32
1848,2011.85
1851,2001.14
1854,1984.47
1857,1981.20
1860,1995.95
1863,2013.32
1866,2015.49
1869,2002.63
1872,1992.39
1875,1999.50
1878,2018.66
1881,2030.38
1884,2023.13
1887,2006.55
1890,2000.27
1893,2011.38
1896,2026.29
1899,2026.48
1902,2009.81
1905,1993.17
1908,1993.39
1911,2008.20
1914,2019.26
1917,2013.51
1920,1998.25
1923,1992.57
1926,2004.89
1929,2022.95
1932,2027.52
1935,2014.54
1938,1999.95
1941,2001.50
1944,2018.53
1947,2032.74
1950,2029.13
1953,2013.21
1956,2004.76
1959,2015.02
1962,2033.63
1965,2040.37
1968,2028.04
1971,2010.63
1974,2007.25
1977,2020.54
1980,2033.94
1983,2031.27
1986,2015.56
1989,2005.53
1992,2014.14
1995,2033.29
1998,2043.03
2001,2034.25
2004,2019.29
2007,2017.97
2010,2035.39
2013,2056.34
2016,2062.94
2019,2054.86
2022,2049.03
2025,2059.26
2028,2079.49
2031,2090.39
2034,2081.71
2037,2065.00
2040,2061.79
2043,2080.18
2046,2106.33
2049,2119.97
2052,2116.65
2055,2111.20
2058,2119.34
2061,2138.55
2064,2150.58
2067,2142.21
2070,2120.59
2073,2105.03
2076,2105.19
2079,2110.50
2082,2103.16
2085,2079.61
2088,2055.48
2091,2048.14
2094,2056.90
2097,2063.57
2100,2053.11
2103,2030.86
2106,2016.60
2109,2021.96
2112,2037.47
2115,2043.42
2118,2032.32
2121,2017.03
2124,2015.70
2127,2030.37
2130,2044.42
2133,2041.61
2136,2024.76
2139,2012.63
2142,2018.53
2145,2035.08
2148,2042.79
2151,2032.55
2154,2015.95
2157,2011.92
2160,2024.81
2163,2039.23
2166,2037.26
2169,2018.99
2172,2002.42
2175,2003.45
2178,2019.69
2181,2037.26
2184,2053.56
2187,2089.36
2190,2175.30
2193,2326.16
2196,2528.93
2199,2753.98
2202,2972.35
2205,3158.98
2208,3281.90
2211,3299.00
2214,3177.62
2217,2924.44
2220,2595.47
2223,2270.64
2226,2011.66
2229,1837.86
2232,1737.12
2235,1693.00
2238,1698.87
2241,1748.37
2244,1821.15
2247,1886.84
2250,1925.42
2253,1941.99
2256,1957.58
2259,1984.82
2262,2014.99
2265,2029.95
2268,2024.95
2271,2015.78
2274,2021.97
2277,2045.14
2280,2067.43
2283,2071.59
2286,2060.47
2289,2053.45
2292,2064.38
2295,2086.19
2298,2099.51
2301,2095.06
2304,2084.23
2307,2085.51
2310,2102.98
2313,2121.52
2316,2124.35
2319,2112.42
2322,2103.64
2324,2111.97
2327,2131.19
2330,2141.45
2333,2131.75
2336,2113.94
2339,2111.10
2342,2132.67
2345,2163.29
2348,2178.20
2351,2168.86
2354,2150.87
2357,2146.48
2360,2161.00
2363,2178.95
2366,2183.02
2369,2174.07
2372,2169.50
2375,2183.14
2378,2208.51
2381,2225.41
2384,2222.59
2387,2210.11
2390,2207.75
2393,2222.55
2396,2241.30
2399,2246.51
2402,2237.18
2405,2230.62
2408,2242.75
2411,2269.87
2414,2292.44
2417,2296.88
2420,2290.68
2423,2293.51
2426,2314.63
2429,2342.47
2432,2358.21
2434,2357.52
2437,2354.99
2440,2366.92
2443,2391.44
2446,2409.12
2449,2404.42
2452,2384.43
2455,2373.22
2458,2387.06
2461,2417.11
2464,2438.35
2467,2435.38
2470,2417.26
2473,2405.69
2476,2410.75
2479,2420.71
2482,2416.44
2485,2393.07
2488,2365.27
2491,2349.55
2494,2344.69
2497,2332.83
2500,2299.95
2503,2252.19
2506,2209.26
2509,2182.63
2512,2163.26
2515,2133.33
2518,2087.96
2521,2042.06
2524,2014.12
2527,2005.25
2529,1998.23
2532,1977.30
2535,1946.57
2538,1926.20
2541,1929.37
2544,1945.93
2547,1951.52
2550,1933.04
2553,1902.79
2556,1885.69
2559,1892.92
2562,1911.09
2565,1917.55
2568,1905.33
2571,1889.52
2574,1889.30
2577,1906.27
2580,1922.99
2583,1923.19
2586,1910.76
2589,1904.86
2592,1917.68
2595,1939.79
2598,1950.44
2601,1941.15
2604,1925.57
2607,1924.19
2610,1941.34
2613,1960.51
2616,1963.59
2619,1951.56
2622,1943.18
2625,1953.03
2629,1974.63
2631,1987.31
2634,1980.09
2637,1963.50
2640,1957.65
2643,1969.46
2646,1985.60
2649,1988.80
2652,1978.52
2655,1971.78
2658,1983.07
2661,2006.64
2664,2021.92
2667,2016.17
2670,1998.97
2673,1991.46
2676,2002.86
2679,2020.39
2682,2024.49
2685,2010.66
2688,1994.70
2691,1994.37
2694,2009.13
2697,2021.14
2700,2015.80
2703,1998.68
2706,1989.07
2709,1997.77
2712,2014.63
2715,2020.24
2718,2008.29
2721,1992.84
2724,1992.10
2727,2007.44
2730,2021.63
2733,2018.72
2736,2002.44
2739,1992.12
2742,2000.60
2745,2019.13
2747,2027.44
2750,2017.00
2753,2001.53
2756,2002.52
2759,2024.71
2762,2049.26
2765,2052.61
2768,2031.34
2771,2005.79
2774,1998.74
2777,2012.22
2780,2027.34
2783,2026.12
2786,2011.29
2789,2001.71
2792,2010.07
2795,2028.51
2798,2037.28
2801,2027.21
2804,2010.16
2807,2005.21
2810,2017.02
2813,2030.76
2816,2029.82
2819,2015.28
2822,2005.04
2825,2013.10
2828,2033.23
2831,2045.49
2834,2039.19
2836,2024.86
2839,2022.02
2843,2036.28
2845,2051.43
2848,2046.74
2851,2020.77
2854,1995.39
2857,1994.13
2860,2017.94
2863,2044.38
2866,2051.09
2869,2037.97
2872,2024.65
2875,2027.28
2878,2041.05
2881,2047.33
2884,2035.96
2887,2017.94
2890,2013.29
2893,2028.36
2896,2048.39
2899,2053.84
2902,2042.28
2905,2030.39
2908,2034.37
2911,2051.23
2914,2062.43
2917,2055.65
2920,2039.53
2923,2034.43
2926,2049.48
2929,2072.19
2932,2082.73
2935,2076.21
2938,2067.57
2941,2073.67
2944,2093.19
2947,2107.90
2950,2103.94
2953,2088.61
2956,2083.09
2959,2099.02
2962,2125.17
2965,2139.51
2968,2133.02
2971,2118.37
2974,2114.10
2977,2123.05
2980,2129.62
2983,2118.81
2986,2094.54
2989,2076.01
2992,2076.04
2995,2086.68
2998,2088.49
3001,2073.00
3004,2052.52
3007,2045.78
3010,2055.97
3013,2066.71
3016,2060.66
3019,2039.55
3022,2022.65
3025,2025.09
3028,2040.78
3031,2049.57
3034,2040.24
3037,2023.15
3040,2018.15
3043,2031.62
3046,2048.88
3049,2050.95
3052,2036.14
3055,2022.13
3058,2025.77
3061,2043.99
3064,2057.47
3067,2052.59
3070,2036.70
3073,2028.93
3076,2037.55
3079,2050.10
3082,2047.75
3085,2028.14
3088,2010.81
3091,2019.58
3094,2062.55
3097,2132.34
3100,2225.10
3103,2355.23
3106,2543.34
3109,2787.35
3112,3045.79
3115,3252.74
3118,3351.70
3121,3320.06
3124,3167.69
3127,2921.17
3130,2614.67
3133,2292.57
3136,2009.40
3139,1813.43
3142,1722.28
3145,1713.50
3148,1743.84
3151,1781.43
3154,1820.88
3157,1870.28
3160,1928.05
3163,1976.92
3166,2000.24
3169,2000.93
3172,1999.26
3175,2011.70
3178,2034.16
3181,2048.68
3184,2045.75
3187,2036.36
3190,2039.70
3193,2060.90
3196,2084.47
3199,2091.54
3202,2081.12
3205,2071.39
3208,2079.16
3211,2100.94
3214,2117.08
3217,2114.16
3220,2100.13
3223,2095.20
3226,2108.78
3229,2128.98
3232,2136.68
3235,2127.66
3238,2117.34
3241,2122.80
3244,2142.69
3247,2158.47
3249,2155.71
3252,2140.69
3255,2133.67
3258,2145.75
3261,2165.60
3264,2171.39
3267,2155.59
3270,2134.86
3273,2133.59
3276,2158.12
3279,2189.83
3282,2204.63
3285,2197.61
3288,2186.33
3291,2190.28
3294,2209.67
3297,2226.76
3300,2227.14
3303,2216.52
3307,2214.30
3309,2231.26
3312,2256.97
3315,2271.67
3318,2268.80
3321,2262.17
3324,2269.83
3327,2292.96
3330,2314.51
3333,2318.76
3336,2309.82
3339,2307.45
3342,2324.70
3346,2353.43
3348,2373.27
3351,2374.62
3354,2368.62
3357,2373.05
3360,2391.14
3363,2407.77
3366,2407.55
3369,2393.49
3372,2384.60
3375,2394.36
3378,2415.07
3381,2425.77
3384,2415.70
3387,2395.92
3390,2386.37
3393,2392.69
3396,2399.16
3399,2386.51
3402,2353.14
3405,2316.78
3408,2294.17
3411,2282.35
3414,2262.94
3417,2224.05
3420,2174.87
3423,2135.92
3426,2116.21
3429,2103.37
3432,2078.23
3435,2037.02
3438,1996.15
3441,1973.72
3444,1969.31
3447,1965.07
3450,1946.40
3453,1918.60
3456,1900.29
3459,1901.35
3462,1911.30
3465,1911.46
3468,1896.66
3471,1881.61
3474,1883.85
3477,1903.01
3480,1920.28
3483,1919.18
3486,1903.84
3489,1893.96
3492,1902.09
3495,1919.47
3498,1926.51
3501,1915.99
3504,1901.99
3507,1903.97
3510,1924.46
3513,1945.70
3516,1949.39
3519,1937.20
3522,1928.66
3525,1938.46
3528,1959.72
3531,1972.04
3534,1965.07
3537,1950.59
3540,1948.88
3543,1965.39
3546,1984.29
3549,1986.58
3552,1971.95
3555,1959.19
3558,1964.81
3561,1984.11
3564,1996.83
3567,1990.47
3570,1974.93
3573,1970.98
3576,1986.52
3579,2007.41
3582,2013.68
3585,2002.34
3588,1990.80
3591,1996.34
3594,2015.82
3597,2028.71
3600,2020.38
3603,1999.05
3606,1987.07
3609,1996.03
3612,2014.28
3615,2020.59
3618,2008.38
3621,1992.80
3624,1993.06
3627,2009.97
3630,2024.80
3633,2020.69
3636,2002.10
3639,1989.67
3642,1996.72
3645,2014.07
3648,2020.84
3651,2008.53
3654,1991.11
3657,1988.72
3660,2004.47
3663,2020.51
3666,2018.26
3669,1999.77
3672,1985.68
3675,1991.84
3678,2011.36
3681,2022.65
3684,2014.01
3687,1996.91
3690,1992.56
3693,2007.57
3696,2026.40
3699,2029.31
3702,2014.95
3705,2001.60
3708,2005.99
3711,2023.99
3714,2035.45
3717,2027.56
3720,2009.77
3723,2002.80
3726,2014.76
3729,2031.62
3732,2033.33
3735,2017.04
3738,2000.91
3741,2003.47
3744,2022.49
3747,2037.36
3750,2032.42
3753,2014.78
3756,2006.17
3759,2017.94
3762,2038.10
3765,2044.95
3769,2031.45
3771,2013.26
3774,2010.27
3777,2024.56
3780,2038.87
3783,2037.36
3786,2024.50
3789,2019.87
3792,2034.79
3795,2057.92
3798,2067.16
3801,2054.30
3804,2034.56
3807,2029.48
3810,2043.02
3813,2057.47
3816,2054.15
3819,2035.01
3822,2020.07
3825,2024.90
3828,2042.67
3831,2052.29
3834,2042.78
3837,2026.22
3840,2023.64
3843,2040.71
3846,2060.80
3849,2063.71
3852,2048.57
3855,2034.80
3858,2039.94
3860,2059.74
3863,2073.78
3866,2069.35
3869,2057.15
3872,2059.88
3875,2086.09
3878,2118.09
3881,2129.04
3884,2110.87
3887,2083.13
3890,2072.77
3893,2086.74
3896,2107.06
3899,2112.14
3902,2100.55
3905,2090.69
3908,2098.29
3911,2117.46
3914,2126.75
3917,2113.45
3920,2088.44
3923,2074.31
3926,2080.26
3929,2092.29
3932,2090.00
3935,2070.21
3938,2050.83
3941,2050.22
3944,2066.00
3947,2077.41
3950,2068.63
3953,2046.69
3956,2033.09
3959,2039.22
3962,2053.52
3965,2055.14
3968,2038.45
3971,2019.70
3974,2018.60
3977,2035.68
3980,2051.86
3983,2049.86
3986,2033.71
3989,2023.61
3992,2032.21
3995,2049.98
3998,2056.13
4001,2043.17
4004,2025.96
4007,2024.95
4010,2042.26
4013,2058.39
4016,2053.54
4019,2029.59
4022,2008.36
4025,2008.44
4028,2028.37
4031,2054.69
4034,2086.19
4037,2145.28
4040,2262.02
4043,2446.55
4046,2677.36
4049,2914.98
4052,3122.39
4055,3270.92
4058,3331.19
4061,3270.98
4064,3074.10
4067,2765.77
4070,2415.24
4073,2104.36
4076,1885.25
4079,1761.73
4082,1707.80
4085,1699.34
4088,1728.08
4091,1788.90
4094,1863.36
4097,1923.20
4100,1951.51
4103,1957.45
4106,1965.02
4109,1987.28
4112,2014.02
4115,2025.76
4118,2017.76
4121,2006.51
4124,2011.48
4127,2033.22
4130,2053.20
4133,2055.16
4136,2043.95
4139,2039.67
4142,2054.64
4145,2079.03
4148,2092.07
4151,2085.72
4154,2073.69
4157,2075.59
4160,2094.48
4163,2113.39
4166,2114.91
4169,2101.00
4172,2090.94
4175,2099.21
4178,2119.32
4181,2131.58
4184,2125.94
4187,2113.48
4190,2113.43
4193,2130.94
4196,2150.98
4199,2155.66
4202,2144.74
4205,2135.98
4208,2144.57
4211,2165.59
4214,2179.51
4217,2174.65
4220,2160.89
4223,2158.47
4226,2175.12
4229,2197.34
4232,2205.89
4235,2197.86
4238,2189.83
4241,2198.73
4244,2222.15
4247,2241.16
4250,2241.81
4253,2231.40
4256,2230.11
4259,2248.12
4262,2274.11
4265,2288.35
4268,2285.25
4271,2279.45
4274,2288.64
4277,2313.03
4280,2335.11
4283,2340.13
4286,2333.54
4289,2335.15
4292,2356.43
4295,2387.01
4298,2405.67
4301,2403.62
4304,2393.59
4307,2394.58
4310,2410.16
4313,2424.99
4316,2423.22
4319,2407.42
4322,2395.74
4325,2400.80
4328,2414.55
4331,2416.92
4334,2398.08
4337,2369.20
4340,2348.95
4343,2341.62
4346,2331.81
4349,2302.00
4352,2253.16
4355,2204.44
4358,2172.47
4361,2153.48
4364,2128.92
4367,2087.81
4370,2040.18
4372,2006.05
4375,1992.76
4378,1986.24
4381,1966.32
4384,1930.02
4387,1896.24
4390,1886.05
4393,1899.49
4396,1914.83
4399,1911.15
4402,1889.81
4405,1871.84
4408,1874.14
4411,1891.48
4414,1903.35
4417,1897.40
4420,1882.83
4423,1879.27
4426,1893.82
4429,1912.63
4432,1916.87
4435,1904.49
4438,1892.87
4441,1898.94
6500,1920.54
6503,1936.76
6506,1933.03
6509,1913.98
6512,1897.54
6515,1899.12
6518,1920.42
6521,1949.95
6524,1970.61
6526,1968.65
6529,1940.62
6532,1897.24
6535,1860.30
6538,1851.21
6541,1874.77
6544,1913.44
6547,1940.31
6550,1942.58
6553,1934.96
6556,1939.95
6559,1963.54
6562,1989.47
6565,1998.72
6568,1990.97
6571,1984.37
6574,1993.85
6577,2013.93
6580,2024.90
6583,2016.71
6586,2002.15
6589,2003.48
6592,2027.16
6595,2055.34
6598,2064.99
6601,2053.31
6604,2041.04
6607,2048.84
6610,2073.73
6613,2092.31
6616,2087.70
6619,2069.30
6623,2062.16
6625,2078.38
6628,2102.63
6631,2109.55
6634,2092.91
6637,2073.65
6640,2076.73
6643,2103.06
6646,2128.41
6649,2130.71
6652,2114.68
6655,2105.60
6658,2119.64
6661,2145.07
6664,2155.87
6667,2142.06
6670,2121.87
6673,2121.17
6676,2143.97
6679,2167.74
6682,2169.03
6685,2150.14
6688,2136.49
6691,2147.25
6694,2173.53
6697,2188.68
6700,2178.96
6703,2159.46
6706,2156.76
6709,2178.40
6712,2204.16
6715,2209.05
6718,2191.82
6721,2176.16
6724,2183.23
6727,2207.38
6730,2222.63
6733,2212.97
6736,2191.33
6738,2184.85
6741,2204.19
6744,2230.26
6747,2234.81
6750,2212.75
6753,2189.55
6756,2194.88
6759,2230.52
6762,2267.78
6765,2277.58
6768,2260.22
6771,2242.92
6774,2248.81
6777,2272.17
6780,2287.12
6783,2278.35
6786,2259.21
6789,2257.16
6792,2281.76
6795,2312.76
6798,2321.71
6801,2302.63
6804,2277.86
6807,2272.30
6810,2286.01
6813,2295.73
6816,2283.26
6819,2257.25
6822,2248.21
6825,2271.02
6828,2305.88
6830,2306.63
6833,2215.60
6836,2016.75
6839,1779.42
6842,1647.13
6845,1766.85
6848,2198.10
6851,2864.09
6854,3583.35
6857,4165.48
6860,4507.54
6863,4627.80
6866,4622.20
6869,4585.77
6872,4559.47
6875,4547.46
6878,4545.45
6881,4545.45
6884,4545.45
6887,4545.45
6890,4545.45
6893,4545.45
6896,4545.45
6899,4545.45
6902,4545.45
6905,4545.45
6908,4545.45
6911,4545.45
6914,4545.45
6917,4545.45
6920,4545.45
6923,4545.45
6926,4545.45
6930,4545.45
6932,4545.45
6935,4545.45
6938,4545.45
6941,4545.45
6944,4545.45
6947,4545.45
6950,4545.45
6953,4545.45
6956,4545.45
6959,4545.45
6962,4545.45
6965,4545.45
6968,4545.45
6971,4545.45
6974,4545.45
6977,4545.45
6980,4545.45
6983,4545.45
6986,4545.45
6989,4545.45
6992,4545.45
6995,4545.45
6998,4545.45
7001,4545.45
7004,4545.45
7007,4545.45
7010,4545.45
7013,4545.45
7016,4545.45
7019,4545.45
7022,4545.45
7025,4545.45
7028,4545.45
7031,4545.45
7034,4545.45
7037,4545.45
7040,4545.45
7043,4545.45
7046,4545.45
7049,4545.45
7052,4545.45
7055,4545.45
7058,4545.45
7061,4545.45
7064,4545.45
7067,4545.45
7070,4545.45
7073,4545.45
7076,4545.45
7079,4545.45
7082,4545.45
7085,4545.45
7088,4545.45
7091,4545.45
7094,4545.45
7097,4545.45
7100,4545.45
7103,4545.45
7106,4545.45
7109,4545.45
7112,4545.45
7115,4545.45
7118,4545.45
7121,4545.45
7124,4545.45
7127,4545.45
7130,4545.45
7133,4545.45
7136,4545.45
7139,4545.45
7142,4545.45
7145,4545.45
7148,4545.45
7151,4545.45
7154,4545.45
7157,4545.45
7160,4545.45
7163,4545.45
7166,4545.45
7169,4545.45
7172,4545.45
7175,4545.45
7178,4545.45
7181,4545.45
7184,4545.45
7187,4545.45
7190,4545.45
7193,4545.45
7196,4545.45
7199,4545.45
7202,4545.45
7205,4545.45
7208,4545.45
7211,4545.45
7214,4545.45
7217,4545.45
7220,4545.45
7223,4545.45
7226,4545.45
7229,4545.45
7232,4545.45
7235,4545.45
7238,4545.45
7241,4545.45
7243,4545.45
7246,4545.45
7249,4545.45
7252,4545.45
7255,4545.45
7258,4545.45
7261,4545.45
7264,4545.45
7267,4545.45
7270,4545.45
7273,4545.45
7276,4545.45
7279,4545.45
7282,4545.45
7285,4545.45
7288,4545.45
7291,4545.45
7294,4545.45
7297,4545.45
7300,4545.45
7303,4545.45
7306,4545.45
7309,4545.45
7312,4545.45
7315,4545.45
7318,4545.45
7321,4545.45
7324,4545.45
7327,4545.45
7330,4545.45
7333,4545.45
7336,4545.45
7340,4545.45
7342,4545.45
7345,4545.45
7348,4545.45
7351,4545.45
7354,4545.45
7357,4545.45
7360,4545.45
7363,4545.45
7366,4545.45
7369,4545.45
7372,4545.45
7375,4545.45
7378,4545.45
7381,4545.45
7384,4545.45
7387,4545.45
7390,4545.45
7393,4545.45
7396,4545.45
7399,4545.45
7402,4545.45
7405,4545.45
7408,4545.45
7411,4545.45
7414,4545.45
7417,4545.45
7420,4545.45
7423,4545.45
7426,4545.45
7429,4545.45
7432,4545.45
7435,4545.45
7438,4545.45
7442,4545.45
7444,4545.45
7447,4545.45
7450,4545.45
7453,4545.45
7456,4545.45
7459,4545.45
7462,4545.45
7465,4545.45
7468,4545.45
7471,4545.45
7474,4545.45
7477,4545.45
7480,4545.45
7483,4545.45
7486,4545.45
7489,4545.45
7492,4545.45
7495,4545.45
7498,4545.45
7501,4545.45
7504,4545.45
7507,4545.45
7510,4545.45
7513,4545.45
7516,4545.45
7519,4545.45
7522,4545.45
7525,4545.45
7528,4545.45
7531,4545.45
7534,4545.45
7537,4545.45
7540,4545.45
7543,4545.45
7546,4545.45
7549,4545.45
7552,4545.45
7555,4545.45
7558,4545.45
7561,4545.45
7564,4545.45
7567,4545.45
7570,4545.45
7573,4545.45
7576,4545.45
7579,4545.45
7582,4545.45
7585,4545.45
7588,4545.45
7591,4545.45
7594,4545.45
7597,4545.45
7600,4545.45
7603,4545.45
7606,4545.45
7609,4545.45
7612,4545.45
7615,4545.45
7618,4545.45
7621,4545.45
7624,4545.45
7627,4545.45
7630,4545.45
7633,4545.45
7636,4545.45
7639,4545.45
7642,4545.45
7645,4545.45
7648,4545.45
7651,4545.45
7654,4545.45
7657,4545.45
7660,4545.45
7663,4545.45
7666,4545.45
7669,4545.45
7672,4545.45
7675,4545.45
7678,4545.45
7681,4545.45
7684,4545.45
7687,4545.45
7690,4545.45
7693,4545.45
7696,4545.45
7699,4545.45
7702,4545.45
7705,4545.45
7708,4545.45
7711,4545.45
7714,4545.45
7717,4545.45
7720,4545.45
7723,4545.45
7726,4545.45
7729,4545.45
7732,4545.45
7735,4545.45
7738,4545.45
7741,4545.45
7744,4549.69
7747,4565.87
7750,4599.72
7753,4642.28
7755,4634.48
7758,4463.51
7761,4021.09
7764,3288.50
7767,2390.51
7770,1553.79
7773,979.16
7776,724.81
7779,693.03
7782,727.38
7785,736.66
7788,745.42
7791,839.96
7794,1067.66
7797,1391.78
7800,1724.88
7803,1985.13
7806,2141.83
7809,2213.15
7812,2233.26
7815,2231.46
7818,2225.06
7821,2220.22
7824,2217.54
7827,2215.92
7830,2214.41
7833,2212.74
7836,2210.91
7839,2208.79
7842,2206.22
7845,2203.54
7848,2201.55
7852,2201.01
7854,2201.83
7857,2203.01
7860,2203.28
7863,2201.97
7866,2199.36
7869,2196.27
7872,2193.45
7875,2191.29
7878,2190.03
7881,2189.98
7884,2191.26
7887,2193.39
7890,2195.32
7893,2196.13
7896,2195.66
7899,2194.60
7902,2193.81
7905,2193.64
7908,2193.84
7911,2193.91
7914,2193.84
7917,2194.01
7920,2194.35
7923,2194.46
7926,2194.42
7929,2195.29
7932,2197.82
7935,2197.45
7938,2179.77
7941,2124.33
7944,2020.48
7947,1885.91
7950,1769.23
7954,1726.25
7956,1783.78
7959,1919.34
7962,2078.60
7965,2215.57
7968,2321.62
7971,2417.95
7974,2522.33
7977,2625.97
7980,2704.82
7983,2750.07
7986,2782.21
7989,2831.28
7992,2905.67
7995,2984.21
7998,3041.28
8001,3076.28
8004,3113.37
8007,3172.62
8010,3246.13
8013,3306.07
8016,3337.32
8019,3355.70
8022,3390.54
8025,3451.09
8028,3514.82
8031,3553.42
8034,3566.65
8037,3583.96
8040,3631.67
8043,3701.57
8046,3758.53
8049,3780.11
8052,3782.57
8055,3803.44
8058,3858.82
8062,3924.04
8064,3960.22
8067,3958.35
8070,3949.43
8073,3970.97
8076,4024.01
8079,4074.62
8082,4091.83
8085,4082.45
8088,4083.82
8091,4120.14
8094,4176.21
8097,4215.35
8100,4218.63
8103,4205.41
8106,4210.54
8109,4245.10
8112,4287.63
8115,4309.69
8118,4306.45
8121,4301.26
8124,4316.09
8127,4350.58
8130,4384.15
8133,4399.82
8136,4402.16
8139,4408.23
8142,4428.97
8145,4458.01
8148,4479.95
8151,4487.47
8154,4486.95
8157,4489.52
8160,4500.53
8163,4514.87
8165,4525.00
8168,4528.78
8171,4528.82
8174,4530.07
8177,4534.45
8180,4539.88
8183,4544.22
8186,4546.21
8189,4546.36
8192,4545.92
8195,4545.69
8198,4546.06
8201,4546.87
8204,4547.99
8207,4547.21
8210,4541.32
8213,4529.94
8216,4516.48
8219,4507.05
8222,4502.38
8225,4490.59
8228,4454.65
8231,4389.10
8234,4311.66
8237,4251.49
8240,4222.69
8243,4208.37
8246,4175.40
8249,4108.82
8252,4030.73
8255,3978.54
8258,3968.15
8261,3976.58
8264,3965.96
8267,3926.16
8269,3884.28
8272,3872.47
8275,3891.26
8278,3905.93
8281,3885.32
8284,3837.87
8287,3805.08
8290,3817.44
8293,3861.21
8296,3891.68
8299,3879.62
8302,3840.25
8305,3814.26
8308,3823.53
8311,3849.61
8314,3857.38
8317,3835.20
8320,3806.82
8323,3803.46
8326,3827.03
8329,3848.14
8332,3840.72
8335,3812.19
8338,3795.25
8341,3810.10
8344,3840.08
8347,3850.40
8350,3827.32
8353,3793.37
8356,3782.12
8359,3800.16
8362,3820.56
8365,3815.18
8369,3787.02
8371,3767.19
8374,3778.15
8377,3807.39
8380,3821.20
8383,3802.46
8386,3769.61
8389,3755.24
8392,3768.75
8395,3785.95
8398,3777.72
8401,3743.74
8404,3713.28
8407,3711.89
8410,3731.88
8413,3741.04
8416,3719.01
8419,3680.25
8422,3656.95
8425,3663.42
8428,3680.24
8431,3677.81
8434,3649.92
8437,3620.29
8440,3614.57
8443,3630.66
8446,3641.14
8449,3625.25
8452,3592.49
8455,3571.59
8458,3577.28
8461,3593.09
8464,3590.52
8467,3561.85
8470,3528.90
8473,3518.30
8476,3531.22
8479,3542.33
8482,3529.31
8485,3498.35
8488,3477.20
8491,3483.48
8494,3504.31
8497,3511.12
8500,3491.71
8503,3463.35
8506,3452.44
8509,3463.94
8512,3475.97
8515,3465.69
8518,3435.68
8521,3411.32
8524,3411.80
8527,3427.93
8530,3432.73
8533,3412.18
8536,3381.10
8539,3366.39
8542,3376.94
8545,3393.78
8548,3392.43
8551,3370.23
8554,3348.34
8557,3346.49
8560,3359.67
8563,3364.38
8566,3346.26
8569,3317.44
8572,3303.38
8574,3313.74
8577,3331.18
8580,3330.71
8583,3308.49
8586,3287.28
8589,3291.63
8592,3319.55
8595,3342.48
8598,3334.52
8601,3299.31
8604,3265.81
8607,3257.74
8610,3270.02
8613,3276.99
8616,3262.22
8619,3236.08
8622,3222.74
8625,3232.09
8628,3248.16
8631,3247.78
8634,3226.71
8637,3204.30
8640,3200.92
8643,3214.32
8646,3222.42
8649,3208.68
8652,3181.30
8655,3164.19
8658,3169.86
8661,3185.50
8664,3188.08
8667,3170.54
8671,3149.34
8673,3145.04
8676,3157.86
8679,3167.63
8682,3157.32
8685,3133.02
8688,3117.51
8691,3124.38
8694,3142.05
8697,3146.62
8700,3128.60
8703,3103.34
8706,3093.44
8709,3103.20
8712,3114.40
8715,3107.70
8718,3085.06
8721,3067.22
8724,3069.24
8727,3083.04
8730,3086.56
8733,3069.36
8736,3045.31
8739,3037.13
8742,3050.38
8745,3066.75
8748,3064.59
8751,3043.25
8754,3023.83
8757,3025.58
8760,3044.39
8763,3058.05
8766,3051.55
8769,3033.31
8772,3024.29
8775,3033.08
8778,3045.76
8781,3042.88
8784,3023.19
8787,3006.41
8790,3011.13
8793,3033.12
8796,3049.01
8799,3041.37
8802,3017.41
8805,2999.94
8808,3001.48
8811,3010.68
8814,3006.35
8817,2982.49
8820,2955.38
8823,2944.73
8826,2950.81
8829,2954.29
8832,2938.49
8835,2909.01
8838,2887.90
8841,2888.92
8844,2902.40
8847,2906.70
8850,2892.99
8853,2874.80
8856,2871.57
8859,2885.17
8862,2896.89
8865,2888.45
8868,2862.97
8871,2841.85
8874,2840.95
8877,2853.06
8880,2856.72
8883,2841.40
8885,2819.82
8888,2813.03
8891,2825.84
8894,2839.53
8897,2831.66
8900,2801.34
8903,2771.80
8906,2766.60
8910,2785.80
8912,2808.38
8915,2819.83
8918,2834.89
8921,2890.74
8924,3015.48
8927,3209.34
8930,3447.63
8933,3701.31
8936,3946.71
8939,4154.15
8942,4274.42
8945,4250.47
8948,4054.14
8951,3716.23
8954,3319.11
8957,2953.24
8960,2673.69
8963,2490.65
8966,2391.35
8969,2362.93
8972,2394.05
8975,2464.79
8978,2540.71
8981,2591.74
8984,2612.39
8987,2621.68
8990,2640.04
8993,2667.64
8996,2686.81
8999,2684.97
9002,2671.07
9005,2666.52
9008,2681.34
9011,2702.79
9014,2709.85
9017,2697.32
9020,2681.89
9023,2683.08
9026,2700.92
9029,2716.07
9032,2712.14
9035,2694.49
9038,2684.03
9041,2693.36
9044,2712.26
9047,2719.54
9050,2707.51
9053,2691.07
9056,2690.77
9059,2709.21
9062,2727.66
9065,2727.10
9068,2709.63
9071,2695.67
9074,2700.54
9077,2717.29
9080,2725.20
9084,2714.01
9086,2696.20
9089,2692.58
9092,2708.84
9095,2729.25
9098,2734.90
9101,2725.34
9104,2718.59
9107,2729.50
9110,2751.86
9113,2764.90
9116,2757.15
9119,2740.03
9122,2735.25
9125,2750.38
9128,2770.20
9131,2774.37
9134,2761.06
9137,2749.14
9140,2757.27
9143,2782.28
9146,2802.69
9149,2802.76
9152,2790.17
9155,2786.82
9158,2804.10
9161,2829.91
9164,2842.85
9167,2836.91
9170,2828.05
9173,2835.70
9176,2860.04
9179,2881.70
9183,2884.03
9185,2872.11
9188,2866.64
9191,2879.95
9194,2901.48
9197,2909.82
9200,2897.34
9203,2879.06
9206,2875.46
9209,2888.63
9212,2899.69
9215,2889.99
9218,2862.17
9221,2836.84
9224,2828.72
9227,2829.54
9230,2817.45
9233,2781.76
9236,2734.89
9239,2698.29
9242,2678.01
9245,2658.54
9248,2621.48
9251,2567.62
9254,2516.76
9257,2486.15
9260,2471.82
9263,2454.44
9266,2422.49
9269,2385.85
9272,2364.16
9275,2363.41
9278,2368.30
9281,2358.90
9284,2333.17
9287,2309.16
9290,2304.35
9293,2315.90
9296,2324.16
9299,2315.37
9302,2297.37
9305,2290.34
9308,2303.35
9311,2323.56
9314,2330.61
9317,2319.82
9320,2306.98
9323,2309.77
9326,2327.09
9329,2340.32
9332,2334.95
9335,2317.91
9338,2310.03
9341,2322.23
9344,2342.65
9347,2349.84
9350,2336.94
9353,2319.83
9356,2319.35
9359,2337.99
9362,2357.56
9365,2360.20
9368,2348.25
9371,2340.92
9374,2351.41
9377,2371.36
9380,2380.33
9383,2369.62
9386,2352.49
9389,2349.10
9392,2363.29
9395,2377.89
9398,2374.13
9401,2353.47
9404,2336.31
9407,2339.41
9410,2357.39
9413,2369.28
9416,2362.45
9419,2346.70
9422,2342.19
9425,2355.87
9428,2373.22
9431,2375.10
9434,2359.93
9437,2345.57
9440,2348.58
9443,2364.69
9446,2373.48
9449,2361.79
9452,2339.31
9455,2328.09
9458,2337.94
9461,2355.41
9464,2359.38
9467,2344.83
9470,2328.15
9473,2327.83
9476,2343.18
9479,2355.27
9482,2349.01
9485,2330.62
9488,2320.42
9491,2329.19
9494,2345.59
9496,2349.09
9499,2333.69
9502,2315.41
9505,2314.65
9508,2332.71
9511,2349.36
9514,2344.54
9517,2321.02
9520,2302.40
9523,2308.10
9526,2332.41
9529,2350.74
9532,2345.80
9535,2325.53
9538,2313.11
9541,2320.96
9544,2337.94
9547,2342.66
9550,2327.99
9553,2308.92
9556,2304.99
9559,2318.05
9562,2330.38
9565,2325.58
9568,2307.89
9571,2297.55
9574,2307.44
9577,2327.97
9580,2337.51
9583,2326.87
9586,2309.37
9589,2305.35
9592,2318.80
9596,2333.03
9598,2330.08
9601,2311.95
9604,2298.09
9607,2303.15
9610,2320.10
9613,2328.42
9616,2318.00
9619,2301.22
9622,2298.92
9625,2316.24
9628,2336.04
9631,2337.70
9634,2320.17
9637,2303.04
9640,2304.37
9643,2320.48
9646,2330.68
9649,2321.46
9652,2301.89
9655,2293.43
9658,2305.25
9661,2323.94
9664,2328.80
9667,2315.54
9670,2300.71
9673,2302.27
9676,2318.54
9679,2330.01
9682,2321.81
9685,2301.24
9688,2289.93
9691,2299.37
9695,2318.11
9697,2324.59
9700,2311.99
9703,2295.23
9706,2293.43
9709,2308.08
9712,2322.01
9715,2320.32
9718,2308.40
9721,2306.02
9724,2323.77
9727,2349.44
9730,2360.14
9733,2347.40
9736,2326.53
9739,2319.80
9742,2332.37
9745,2348.09
9748,2349.73
9751,2339.01
9754,2334.26
9757,2347.93
9760,2370.30
9763,2378.75
9766,2362.50
9769,2335.04
9772,2319.62
9775,2324.32
9778,2334.61
9781,2331.14
9784,2312.21
9787,2295.31
9790,2296.21
9793,2310.20
9796,2317.01
9799,2303.92
9802,2280.52
9805,2268.01
9808,2275.15
9811,2288.54
9814,2288.20
9817,2270.74
9820,2253.29
9823,2253.99
9826,2271.15
9829,2285.18
9832,2280.87
9835,2264.60
9838,2256.67
9841,2267.68
9844,2286.15
9847,2291.57
9850,2277.84
9853,2260.21
9856,2257.59
9859,2270.74
9862,2281.27
9865,2272.71
9868,2249.62
9871,2233.14
9874,2238.85
9877,2263.44
9880,2295.65
9883,2339.40
9886,2420.75
9889,2568.27
9892,2784.86
9895,3038.87
9898,3281.03
9901,3467.38
9904,3566.85
9907,3555.17
9910,3414.21
9912,3148.10
9915,2800.59
9918,2449.28
9921,2171.19
9924,2003.18
9927,1930.56
9930,1912.74
9933,1920.16
9936,1948.91
9939,2004.02
9942,2076.41
9945,2140.94
9948,2176.99
9951,2187.33
9954,2193.36
9957,2211.41
9960,2236.66
9963,2251.13
9966,2246.65
9969,2236.06
9972,2239.29
9975,2260.71
9978,2283.80
9981,2289.75
9984,2278.81
9987,2269.84
9990,2278.81
9993,2300.43
9996,2314.16
9999,2307.77
10002,2291.47
10006,2286.37
10008,2300.57
10011,2320.08
10014,2325.04
10017,2312.72
10020,2300.65
10023,2306.71
10026,2328.62
10029,2346.54
10032,2345.51
10035,2332.15
10038,2326.75
10041,2339.76
10044,2360.03
10047,2367.93
10050,2358.35
10053,2346.70
10056,2351.05
10059,2370.94
10062,2387.49
10065,2384.73
10068,2368.12
10071,2358.63
10074,2369.35
10077,2391.19
10080,2403.77
10083,2399.03
10086,2390.26
10089,2396.34
10092,2419.56
10095,2442.43
10098,2447.63
10101,2437.85
10104,2432.98
10108,2447.60
10110,2474.47
10113,2493.09
10116,2492.94
10119,2485.12
10122,2489.22
10125,2510.58
10128,2534.33
10131,2542.72
10134,2535.88
10137,2531.82
10140,2545.71
10143,2572.08
10146,2590.92
10149,2590.10
10152,2579.09
10155,2577.77
10158,2593.46
10161,2612.68
10164,2616.33
10167,2601.71
10170,2585.48
10173,2584.48
10176,2596.38
10179,2602.25
10182,2588.24
10185,2561.02
10188,2539.44
10191,2532.04
10194,2526.64
10197,2503.99
10200,2460.30
10203,2412.19
10207,2378.63
10209,2360.16
10212,2339.29
10215,2301.41
10218,2252.31
10221,2212.10
10224,2192.59
10227,2184.24
10230,2167.63
10233,2136.17
10236,2104.05
10239,2089.95
10242,2095.60
10245,2103.48
10248,2096.78
10251,2078.20
10254,2066.22
10257,2073.16
10260,2090.52
10263,2098.17
10266,2087.48
10269,2071.30
10272,2069.27
10275,2085.22
10278,2102.65
10281,2103.59
10284,2089.36
10287,2079.26
10290,2088.82
10293,2111.94
10296,2127.93
10299,2124.87
10302,2112.83
10305,2112.04
10308,2129.28
10311,2150.05
10314,2155.08
10317,2142.44
10320,2129.71
10323,2133.85
10326,2152.15
10329,2165.82
10332,2161.95
10335,2148.41
10338,2144.67
10341,2158.94
10344,2178.42
10347,2183.83
10350,2171.58
10353,2158.13
10356,2161.13
10359,2179.18
10362,2193.22
10365,2188.38
10368,2171.00
10371,2161.36
10374,2170.78
10377,2188.89
10380,2195.77
10383,2185.00
10386,2171.06
10389,2172.59
10392,2190.70
10395,2207.39
10398,2205.86
10401,2189.42
10404,2177.45
10407,2183.08
10410,2198.35
10413,2203.73
10416,2190.95
10419,2172.96
10422,2169.07
10425,2182.82
10428,2197.97
10431,2197.09
10434,2181.68
10437,2170.28
10440,2176.93
10443,2194.84
10446,2204.15
10449,2194.78
10452,2178.29
10455,2174.60
10458,2188.93
10461,2205.27
10464,2204.36
10467,2185.78
10470,2168.71
10473,2170.76
10476,2188.53
10479,2201.88
10482,2196.96
10485,2181.68
10488,2175.97
10491,2188.55
10494,2206.79
10497,2211.07
10500,2197.26
10503,2181.14
10506,2180.22
10509,2193.60
10512,2203.41
10515,2196.11
10518,2178.75
10521,2171.35
10523,2183.82
10526,2204.20
10529,2211.43
10532,2199.16
10535,2183.72
10538,2186.65
10541,2210.30
10544,2233.70
10547,2234.29
10550,2211.60
10553,2187.74
10556,2183.94
10559,2199.04
10562,2212.99
10565,2210.01
10568,2195.52
10571,2188.63
10574,2199.48
10577,2217.05
10580,2221.72
10583,2208.04
10586,2191.16
10589,2189.87
10592,2205.19
10595,2219.50
10598,2216.56
10601,2200.17
10604,2189.41
10607,2196.72
10610,2213.72
10613,2221.10
10616,2211.33
10620,2197.46
10622,2198.16
10625,2215.68
10628,2233.21
10631,2234.11
10634,2221.06
10637,2213.26
10640,2224.08
10643,2245.00
10646,2254.55
10649,2242.47
10652,2221.33
10655,2212.85
10658,2223.77
10661,2238.95
10664,2239.39
10667,2224.32
10670,2212.31
10673,2220.10
10676,2243.70
10679,2262.81
10682,2263.30
10685,2252.48
10688,2249.34
10691,2261.91
10694,2278.12
10697,2280.24
10700,2266.37
10703,2253.84
10706,2259.83
10709,2281.82
10712,2299.85
10715,2298.46
10719,2283.33
10721,2274.18
10724,2281.31
10727,2294.19
10730,2293.80
10733,2275.22
10736,2253.53
10739,2246.96
10742,2255.78
10745,2261.93
10748,2249.67
10751,2224.14
10754,2206.05
10757,2208.91
10760,2224.07
10763,2230.85
10766,2219.77
10769,2202.69
10772,2198.13
10775,2209.86
10778,2222.70
10781,2220.51
10784,2205.30
10787,2195.29
10790,2203.68
10793,2223.38
10796,2234.46
10799,2226.78
10802,2211.03
10805,2205.99
10808,2216.70
10811,2228.66
10814,2224.87
10817,2206.10
10820,2190.48
10823,2192.91
10826,2207.96
10828,2216.09
10831,2207.18
10834,2195.10
10837,2207.15
10840,2259.85
10843,2347.58
10846,2457.33
10849,2593.32
10852,2778.66
10855,3025.09
10858,3300.54
10861,3529.02
10864,3629.13
10867,3560.80
10870,3342.84
10873,3032.58
10876,2691.60
10879,2367.37
10882,2096.13
10885,1908.99
10888,1823.70
10891,1829.05
10894,1884.95
10897,1947.54
10900,1996.15
10903,2037.08
10906,2083.01
10910,2131.08
10912,2163.83
10915,2170.22
10918,2160.61
10921,2157.63
10924,2172.82
10926,2195.39
10929,2205.96
10932,2199.87
10935,2193.52
10938,2206.40
13050,2237.88
13053,2264.68
13056,2264.74
13059,2240.49
13062,2221.66
13065,2243.90
13068,2320.53
13070,2429.61
13073,2526.83
13076,2574.05
13079,2562.72
13082,2516.63
13085,2471.99
13088,2450.51
13091,2445.92
13094,2434.66
13097,2399.97
13100,2348.21
13103,2302.09
13106,2275.36
13109,2259.42
13112,2234.45
13115,2192.60
13118,2147.03
13121,2117.80
13124,2109.17
13126,2105.29
13129,2088.45
13132,2059.75
13135,2038.83
13138,2041.79
13141,2061.91
13144,2074.63
13147,2062.51
13150,2033.15
13153,2010.82
13156,2011.08
13159,2026.07
13162,2035.36
13165,2029.31
13168,2018.63
13171,2020.34
13174,2037.00
13177,2052.75
13179,2051.80
13182,2036.98
13185,2027.90
13188,2039.31
13191,2063.81
13194,2078.59
13197,2069.98
13200,2049.08
13203,2040.66
13206,2057.24
13209,2086.16
13212,2103.57
13215,2099.84
13218,2088.28
13221,2088.78
13224,2105.26
13227,2122.00
13230,2122.11
13233,2107.42
13236,2096.63
13238,2103.82
13241,2122.47
13244,2132.23
13247,2122.14
13250,2103.88
13253,2099.85
13256,2118.50
13259,2144.14
13262,2153.12
13265,2138.68
13268,2117.76
13271,2112.24
13274,2125.71
13277,2140.76
13280,2139.41
13283,2122.97
13286,2109.85
13289,2114.85
13292,2132.30
13295,2143.20
13298,2136.97
13301,2123.42
13304,2120.69
13307,2133.75
13310,2148.15
13313,2146.60
13316,2129.34
13319,2114.52
13322,2118.08
13325,2135.71
13328,2147.81
13331,2141.60
13334,2125.41
13337,2118.85
13340,2130.22
13343,2146.99
13346,2150.17
13349,2136.35
13352,2121.50
13355,2122.63
13358,2138.08
13361,2149.51
13364,2142.94
13367,2124.92
13370,2115.21
13373,2124.28
13376,2141.38
13379,2147.10
13382,2135.79
13385,2122.40
13387,2125.14
13390,2144.32
13393,2161.18
13396,2158.54
13399,2140.51
13402,2128.86
13405,2139.39
13408,2164.04
13411,2178.87
13414,2169.37
13417,2145.75
13420,2131.48
13423,2138.16
13426,2154.21
13429,2159.11
13432,2146.76
13435,2131.62
13438,2131.74
13441,2147.95
13444,2162.81
13447,2160.63
13450,2145.22
13453,2135.34
13456,2142.82
13459,2159.03
13462,2164.99
13465,2153.60
13468,2138.32
13471,2137.95
13474,2154.92
13477,2172.15
13480,2172.19
13484,2156.74
13486,2144.56
13489,2150.03
13492,2167.19
13495,2177.07
13498,2169.86
13501,2156.14
13504,2154.31
13507,2168.90
13510,2184.80
13513,2184.43
13516,2168.13
13519,2154.19
13522,2158.28
13525,2175.72
13528,2186.79
13531,2179.08
13534,2161.53
13537,2154.01
13540,2165.14
13543,2182.79
13546,2188.75
13549,2179.93
13552,2171.78
13555,2180.11
13558,2202.19
13561,2219.29
13564,2217.61
13567,2204.06
13570,2198.09
13573,2209.77
13576,2228.63
13579,2236.14
13582,2227.37
13585,2216.97
13588,2222.31
13591,2243.02
13594,2260.49
13597,2258.20
13600,2239.48
13603,2223.13
13606,2221.87
13609,2228.62
13612,2225.95
13615,2207.58
13618,2186.53
13621,2180.58
13624,2191.64
13627,2202.96
13630,2197.69
13633,2177.81
13636,2161.64
13639,2162.66
13642,2174.27
13645,2177.87
13648,2164.82
13651,2147.01
13654,2143.60
13657,2158.92
13660,2176.99
13663,2179.05
13666,2164.29
13669,2150.11
13672,2152.00
13675,2165.87
13678,2173.26
13681,2163.17
13684,2145.25
13687,2138.97
13690,2151.41
13693,2168.80
13696,2171.77
13699,2156.82
13702,2139.66
13705,2136.92
13708,2147.64
13711,2156.44
13714,2155.40
13717,2159.46
13720,2197.61
13723,2289.41
13726,2432.22
13729,2613.35
13732,2827.45
13735,3072.40
13738,3325.51
13741,3527.85
13744,3602.86
13747,3502.06
13750,3240.13
13753,2888.03
13756,2530.66
13759,2226.07
13762,1996.49
13765,1845.94
13768,1776.20
13771,1782.56
13774,1841.67
13777,1915.71
13780,1973.93
13783,2010.48
13786,2040.21
13789,2075.88
13792,2111.97
13795,2132.23
13798,2130.85
13801,2121.87
13804,2125.43
13807,2146.29
13810,2169.33
13813,2177.18
13816,2170.02
13819,2165.01
13822,2176.11
13825,2197.57
13828,2210.53
13831,2204.86
13834,2191.27
13837,2189.36
13840,2205.43
13843,2225.13
13846,2229.66
13849,2217.07
13852,2204.45
13855,2208.59
13858,2227.08
13861,2241.42
13864,2238.54
13867,2225.84
13870,2222.50
13873,2237.10
13876,2257.55
13879,2264.76
13882,2254.47
13885,2242.13
13888,2245.39
13891,2264.05
13894,2280.48
13897,2280.00
13899,2267.96
13902,2263.38
13905,2276.92
13908,2297.66
13911,2304.47
13914,2290.07
13917,2270.75
13920,2270.37
13923,2295.12
13926,2326.95
13929,2342.58
13932,2337.73
13935,2330.40
13938,2340.03
13941,2366.07
13944,2389.33
13947,2394.06
13950,2385.19
13953,2382.69
13956,2398.65
13959,2424.00
13962,2439.22
13965,2436.92
13968,2430.15
13971,2437.17
13974,2460.34
13977,2483.48
13980,2490.64
13983,2484.66
13986,2483.68
13989,2500.00
13992,2525.32
13996,2539.65
13998,2533.57
14001,2518.80
14004,2514.56
14007,2525.65
14010,2537.23
14013,2532.20
14016,2510.94
14019,2490.65
14022,2484.97
14025,2487.66
14028,2479.20
14031,2448.95
14034,2407.41
14037,2374.49
14040,2357.16
14043,2341.84
14046,2310.64
14049,2262.68
14052,2215.82
14055,2187.04
14058,2173.74
14061,2157.43
14064,2125.44
14067,2086.05
14070,2059.35
14073,2054.53
14076,2059.24
14079,2053.44
14082,2031.50
14085,2007.82
14088,1999.82
14091,2008.13
14094,2016.64
14097,2011.56
14100,1997.49
14103,1991.45
14105,2002.26
14108,2019.38
14111,2024.47
14114,2013.02
14117,2001.43
14120,2009.83
14123,2039.30
14126,2068.72
14129,2075.53
14132,2058.88
14135,2039.79
14138,2038.65
14141,2054.44
14144,2067.91
14147,2064.32
14150,2049.85
14153,2044.07
14156,2057.48
14159,2078.96
14162,2088.18
14165,2078.39
14168,2063.68
14171,2062.91
14174,2078.45
14177,2093.92
14180,2093.49
14183,2080.17
14186,2072.23
14189,2082.16
14192,2102.06
14195,2112.85
14198,2106.02
14201,2093.47
14203,2093.20
14206,2108.13
14208,2121.77
14211,2116.51
14214,2094.75
14217,2079.25
14220,2090.60
14223,2124.45
14226,2154.07
14229,2155.83
14232,2131.88
14235,2106.64
14238,2101.23
14241,2113.29
14244,2122.54
14247,2114.63
14250,2096.57
14253,2088.36
14256,2099.89
14259,2119.64
14262,2127.45
14265,2117.51
14268,2104.64
14271,2106.90
14274,2124.88
14277,2140.73
14280,2138.42
14283,2121.77
14286,2109.88
14289,2115.23
14292,2129.47
14295,2133.62
14298,2120.15
14301,2102.18
14304,2098.82
14307,2113.19
14309,2128.64
14312,2127.76
14315,2112.06
14318,2101.07
14321,2110.59
14324,2134.28
14327,2149.37
14330,2140.93
14333,2118.12
14336,2104.44
14339,2112.61
14342,2131.75
14345,2140.07
14348,2129.22
14351,2112.77
14354,2110.11
14357,2124.61
14360,2139.98
14363,2138.78
14366,2122.39
14369,2109.24
14372,2113.84
14375,2130.63
14378,2140.87
14381,2134.43
14384,2121.24
14387,2118.95
14390,2131.81
14393,2145.21
14396,2142.91
14399,2126.77
14402,2115.65
14405,2124.23
14409,2145.82
14411,2159.05
14414,2151.88
14417,2134.37
14420,2126.87
14423,2136.47
14426,2149.16
14429,2146.55
14432,2128.17
14435,2113.18
14438,2119.06
14441,2141.37
14444,2157.98
14447,2153.52
14450,2136.07
14453,2127.67
14456,2139.40
14459,2159.15
14462,2166.41
14465,2155.41
14468,2141.45
14471,2142.32
14474,2157.36
14477,2167.99
14480,2159.83
14483,2140.39
14486,2131.63
14489,2145.32
14492,2169.40
14495,2181.06
14498,2171.98
14501,2157.23
14504,2157.99
14508,2177.64
14510,2198.12
14513,2201.01
14516,2187.77
14519,2177.15
14522,2183.11
14525,2198.81
14528,2205.59
14531,2196.10
14534,2184.12
14537,2189.23
14540,2213.70
14543,2238.40
14546,2242.90
14549,2227.38
14552,2211.58
14555,2211.76
14558,2222.42
14561,2223.45
14564,2203.94
14567,2175.99
14570,2161.88
14573,2169.39
14576,2183.44
14579,2183.21
14582,2165.61
14585,2148.11
14588,2147.98
14591,2162.13
14594,2170.68
14597,2160.13
14600,2139.32
14603,2129.66
14606,2140.88
14609,2159.73
14612,2165.05
14615,2151.65
14618,2135.94
14621,2136.80
14624,2153.76
14627,2167.49
14630,2162.24
14633,2144.11
14636,2134.24
14639,2144.42
14642,2163.36
14645,2169.13
14648,2153.79
14651,2132.06
14654,2124.61
14657,2134.97
14660,2147.36
14663,2147.94
14666,2145.76
14669,2169.26
14672,2243.09
14675,2369.87
14678,2537.75
14681,2740.26
14684,2977.81
14687,3234.96
14690,3459.63
14693,3574.04
14696,3518.55
14699,3292.97
14702,2958.95
14705,2601.60
14708,2285.22
14711,2038.13
14714,1867.83
14717,1778.87
14720,1770.85
14723,1823.70
14726,1898.23
14729,1958.31
14732,1993.23
14735,2018.00
14738,2050.23
14741,2088.07
14744,2113.62
14747,2115.56
14750,2104.50
14753,2102.65
14756,2119.81
14759,2143.17
14762,2152.55
14765,2143.89
14768,2134.17
14771,2141.93
14774,2166.04
14777,2186.72
14780,2187.84
14783,2174.95
14786,2168.54
14789,2180.25
14792,2199.90
14795,2207.54
14798,2197.04
14801,2183.54
14804,2186.43
14807,2206.90
14810,2226.26
14813,2226.96
14816,2212.37
14819,2202.77
14822,2211.97
14825,2231.51
14827,2240.80
14830,2230.84
14833,2215.75
14836,2217.87
14839,2242.68
14842,2271.33
14845,2280.11
14848,2265.58
14851,2248.06
14854,2249.56
14857,2270.51
14860,2290.65
14863,2292.20
14866,2279.34
14869,2272.64
14872,2285.47
14875,2309.07
14878,2322.48
14881,2316.72
14884,2305.09
14887,2308.16
14890,2330.45
14893,2355.62
14896,2365.13
14899,2359.37
14902,2356.59
14905,2371.57
14908,2398.53
14911,2417.91
14914,2419.07
14917,2412.79
14921,2418.66
14923,2442.31
14926,2468.44
14929,2478.00
14932,2469.81
14935,2461.94
14938,2471.09
14941,2493.69
14944,2510.27
14947,2507.96
14950,2495.04
14953,2491.02
14956,2503.58
14959,2519.24
14962,2518.39
14965,2497.81
14968,2474.33
14971,2465.67
14974,2469.78
14977,2466.94
14980,2441.87
14983,2400.96
14986,2364.75
14989,2344.44
14992,2329.57
14995,2300.71
14998,2252.74
15001,2201.93
15004,2168.30
15007,2153.61
15010,2140.09
15013,2111.41
15016,2071.63
15020,2040.72
15022,2031.21
15025,2033.56
15028,2026.96
15031,2003.27
15034,1976.61
15037,1967.13
15040,1978.02
15043,1991.54
15046,1988.93
15049,1971.52
15052,1958.88
15055,1966.18
15058,1986.78
15061,1999.91
15064,1994.14
15067,1980.21
15070,1977.81
15073,1992.67
15076,2009.95
15079,2011.73
15082,1998.27
15085,1988.01
15088,1996.84
15091,2019.62
15094,2035.80
15097,2032.69
15100,2019.65
15103,2017.05
15106,2032.58
15109,2052.27
15112,2056.45
15115,2042.71
15118,2028.85
15121,2032.90
15124,2052.52
15127,2067.80
15130,2063.93
15133,2048.12
15136,2041.19
15139,2053.70
15142,2074.09
15145,2082.09
15148,2072.27
15151,2060.30
15154,2064.49
15157,2084.22
15160,2099.99
15163,2095.35
15166,2075.72
15169,2062.59
15172,2069.38
15175,2086.87
15178,2094.18
15181,2083.01
15184,2067.05
15187,2065.91
15190,2082.25
15193,2098.15
15196,2095.53
15199,2076.49
15202,2060.98
15205,2064.18
15208,2079.60
15211,2087.44
15214,2078.03
15217,2063.38
15220,2063.39
15223,2082.55
15226,2103.83
15229,2107.38
15232,2092.38
15235,2077.53
15238,2079.59
15241,2094.63
15244,2103.55
15247,2094.76
15250,2078.14
15253,2073.73
15256,2088.17
15259,2106.40
15262,2108.22
15265,2091.16
15268,2073.54
15271,2074.11
15274,2091.47
15277,2106.20
15280,2103.26
15283,2088.55
15286,2081.29
15289,2091.22
15292,2107.41
15295,2111.08
15298,2097.91
15301,2083.41
15304,2085.16
15307,2102.41
15310,2116.56
15313,2112.33
15316,2095.10
15319,2084.80
15322,2093.31
15325,2110.89
15328,2117.78
15331,2107.14
15333,2092.95
15336,2093.70
15339,2110.35
15342,2123.70
15345,2115.21
15348,2088.75
15351,2068.44
15354,2074.00
15357,2099.93
15360,2121.50
15363,2120.63
15366,2104.20
15369,2094.78
15372,2105.08
15375,2124.58
15378,2132.40
15381,2121.33
15384,2106.03
15387,2105.94
15390,2122.79
15393,2138.36
15396,2135.17
15399,2116.57
15402,2103.03
15405,2109.07
15408,2127.12
15411,2136.66
15414,2128.07
15417,2113.93
15420,2114.31
15423,2133.51
15426,2154.51
15429,2158.35
15433,2145.43
15435,2135.13
15438,2143.27
15441,2164.59
15444,2179.01
15447,2174.88
15450,2162.07
15453,2160.20
15456,2175.42
15459,2193.07
15462,2194.65
15465,2179.75
15468,2167.13
15471,2173.63
15474,2194.35
15477,2207.28
15480,2197.11
15483,2171.93
15486,2153.52
15489,2153.94
15492,2163.03
15495,2161.90
15498,2145.71
15501,2129.28
15504,2129.65
15507,2145.67
15510,2158.20
15513,2151.07
15516,2129.00
15519,2112.08
15522,2113.25
15525,2124.43
15528,2126.90
15532,2113.58
15534,2097.75
15537,2097.18
15541,2113.63
15543,2130.12
15546,2130.07
15549,2115.73
15552,2105.37
15555,2111.96
15558,2128.22
15561,2134.99
15564,2123.72
15567,2106.69
15570,2103.14
15573,2117.17
15576,2132.57
15579,2131.19
15582,2113.20
15585,2096.80
15588,2098.01
15591,2114.23
15594,2131.50
15597,2147.35
15600,2183.11
15603,2270.29
15606,2424.53
15609,2633.07
15612,2866.59
15615,3095.82
15618,3293.95
15621,3425.40
15624,3443.57
15627,3312.78
15630,3040.67
15633,2688.47
15636,2343.16
15639,2071.75
15641,1894.73
15644,1797.27
15647,1759.05
15650,1771.81
15653,1830.15
15656,1914.66
15659,1992.26
15662,2037.06
15665,2050.08
15668,2054.56
15671,2071.01
15674,2097.41
15677,2115.29
15680,2113.25
15683,2101.41
15686,2100.71
15689,2120.06
15692,2146.62
15695,2159.94
15698,2154.57
15701,2145.19
15704,2149.26
15707,2166.84
15710,2181.28
15713,2179.01
15716,2166.09
15719,2161.61
15722,2175.96
15725,2198.59
15728,2209.88
15731,2203.24
15734,2192.30
15737,2195.07
15739,2212.84
15742,2228.85
15746,2227.44
15748,2213.00
15751,2206.47
15754,2222.40
15757,2251.59
15760,2269.61
15763,2262.12
15766,2240.01
15769,2227.86
15772,2237.95
15775,2258.65
15778,2268.52
15781,2260.49
15784,2248.79
15787,2252.12
15790,2272.45
15793,2292.58
15796,2295.78
15799,2284.68
15802,2277.95
15805,2289.19
15808,2311.99
15811,2327.98
15814,2328.58
15817,2324.69
15820,2333.38
15823,2357.25
15826,2380.44
15829,2386.53
15832,2377.76
15835,2373.40
15838,2388.58
15841,2417.52
15844,2440.11
15847,2444.70
15850,2440.71
15853,2447.05
15856,2469.90
15859,2495.28
15862,2504.97
15865,2497.32
15868,2488.92
15871,2495.34
15874,2513.22
15877,2524.35
15880,2516.96
15883,2500.01
15886,2493.30
15889,2504.76
15892,2520.83
15895,2521.21
15898,2500.81
15901,2474.35
15904,2458.44
15907,2451.95
15910,2437.38
15912,2401.76
15915,2352.42
15918,2310.26
15921,2286.93
15924,2271.52
15927,2242.20
15930,2191.02
15933,2133.96
15936,2095.20
15939,2082.34
15942,2079.31
15945,2064.66
15948,2034.64
15951,2005.69
15954,1994.62
15957,1999.31
15960,2001.39
15963,1987.08
15966,1963.32
15969,1949.90
15972,1956.92
15975,1973.05
15978,1978.37
15981,1966.82
15984,1953.02
15987,1955.34
15990,1974.59
15993,1992.99
15996,1994.19
15999,1981.63
16002,1974.23
16005,1984.57
16008,2004.40
16011,2014.46
16014,2006.65
16017,1993.50
16020,1993.71
16023,2010.53
16026,2028.10
16029,2029.88
16032,2017.90
16035,2010.57
16038,2021.51
16041,2043.74
16044,2057.49
16046,2052.92
16049,2041.36
16052,2042.14
16055,2059.72
16058,2076.89
16061,2073.09
16064,2048.03
16067,2024.19
16070,2024.50
16073,2048.87
16076,2074.75
16079,2081.00
16082,2069.12
16085,2059.30
16088,2066.88
16091,2085.66
16094,2096.17
16097,2088.34
16100,2073.21
16103,2069.97
16106,2083.80
16109,2099.71
16112,2099.72
16115,2083.63
16118,2069.39
16121,2072.74
16124,2089.27
16127,2099.72
16130,2092.33
16133,2076.43
16136,2071.81
16139,2085.99
16142,2105.32
16145,2110.21
16148,2097.06
16151,2081.85
16154,2081.71
16157,2095.23
16160,2104.87
16163,2097.81
16166,2081.55
16169,2075.57
16172,2089.05
16175,2109.77
16178,2117.31
16181,2105.66
16184,2089.64
16187,2087.95
16190,2101.91
16193,2114.49
16196,2110.25
16199,2093.21
16202,2082.31
16205,2089.71
16208,2106.88
16211,2114.65
16214,2105.33
16217,2091.52
16220,2091.38
16223,2107.31
16226,2122.63
16229,2120.58
16232,2103.48
16235,2090.33
16238,2095.20
16241,2111.39
16244,2119.39
16247,2109.26
16250,2092.35
16253,2088.19
16256,2102.03
16259,2118.67
16262,2119.67
16265,2104.49
16268,2091.00
16271,2095.18
16274,2112.87
16277,2124.80
16280,2118.72
16283,2103.50
16286,2098.68
16289,2112.02
16292,2130.38
16295,2134.79
16298,2122.21
16301,2108.89
16304,2111.84
16307,2129.19
16310,2142.41
16313,2137.47
16316,2120.82
16319,2111.91
16322,2120.97
16325,2137.63
16328,2143.56
16331,2134.10
16334,2123.80
16337,2129.50
16340,2150.38
16343,2168.29
16346,2167.98
16349,2154.45
16352,2147.17
16355,2157.93
16357,2177.28
16360,2185.96
16363,2177.46
16366,2166.86
16369,2174.75
16372,2203.41
16375,2232.21
16378,2237.99
16381,2218.89
16384,2195.76
16387,2189.57
16390,2199.63
16393,2206.13
16396,2193.39
16399,2167.66
16402,2149.80
16405,2151.95
16408,2164.31
16411,2166.36
16414,2150.33
16417,2129.74
16420,2123.33
16423,2133.64
16426,2143.90
16429,2137.65
16432,2117.91
16435,2103.86
16438,2108.89
16441,2125.27
16444,2133.09
16447,2123.00
16450,2106.90
16454,2104.25
16456,2119.35
16459,2136.22
16462,2136.64
16465,2120.76
16468,2106.82
16471,2110.35
16474,2126.40
16477,2135.75
16480,2127.04
16483,2109.73
16486,2102.82
16489,2112.64
16492,2125.27
16495,2122.96
16498,2106.40
16501,2097.72
16504,2121.10
16507,2183.70
16510,2277.61
16513,2400.58
16516,2567.91
16519,2795.47
16522,3068.39
16525,3328.76
16528,3498.94
16531,3523.40
16534,3394.95
16537,3147.98
16540,2832.76
16543,2497.24
16546,2185.89
16549,1941.97
16552,1797.52
16556,1755.25
16558,1783.15
16561,1835.89
16564,1883.91
16567,1924.91
16570,1968.83
16573,2016.00
16576,2052.54
16579,2066.67
16582,2064.82
16585,2067.00
16588,2085.75
16591,2112.54
16594,2127.66
16597,2123.04
16600,2111.99
16603,2114.52
16606,2134.91
16609,2157.23
16612,2163.23
16615,2152.99
16618,2144.41
16621,2152.76
16624,2173.38
16627,2187.44
16630,2183.81
16633,2171.85
16636,2170.41
16639,2185.83
16642,2204.38
16645,2208.06
16648,2195.56
16651,2184.03
16654,2189.69
16657,2209.34
16660,2224.18
16663,2221.19
16666,2208.45
16669,2205.88
16672,2222.48
16675,2245.96
16678,2256.54
16681,2249.19
16684,2238.86
16687,2242.96
16690,2261.32
16693,2276.72
16696,2275.21
16699,2262.67
16702,2258.55
16705,2273.71
16708,2297.72
16711,2310.20
16714,2303.99
16717,2292.92
16720,2296.10
16723,2316.27
16726,2337.18
16729,2342.60
16732,2335.29
16735,2333.91
16738,2351.46
16741,2380.18
16744,2400.10
16747,2401.57
16750,2396.10
16753,2402.99
16756,2427.28
16759,2454.01
16762,2465.57
16765,2461.53
16768,2458.83
16771,2471.45
16774,2493.98
16777,2507.67
16780,2502.36
16783,2488.70
16786,2486.36
16789,2501.69
16792,2520.20
16795,2522.70
16798,2506.61
16801,2488.34
16804,2483.91
16807,2490.16
16810,2488.14
16813,2464.43
16816,2426.55
16819,2394.05
16822,2376.41
16825,2362.57
16828,2334.33
16831,2287.94
16834,2238.91
16837,2204.78
16840,2185.53
16843,2164.23
16846,2127.39
16849,2081.34
16852,2045.76
16855,2031.69
16858,2029.26
16861,2019.17
16864,1995.03
16867,1970.54
16869,1963.15
16872,1973.34
16875,1982.91
16878,1974.88
16881,1953.09
16884,1939.30
16887,1949.65
16890,1976.32
16893,1994.98
16896,1990.09
16899,1970.76
16902,1960.24
16905,1970.62
16908,1990.90
16911,2000.54
16914,1992.71
16917,1981.25
16920,1984.41
16923,2003.85
16926,2022.64
16929,2024.79
16932,2013.49
16935,2007.18
16938,2018.18
16941,2038.48
16944,2048.98
16947,2041.59
16950,2028.76
16953,2029.10
16956,2046.00
16959,2063.59
16962,2064.98
16966,2051.59
16968,2041.61
16971,2049.16
16974,2068.02
16977,2078.88
16980,2071.56
16983,2056.96
16986,2054.73
16989,2070.91
16992,2090.90
16995,2095.90
16998,2084.06
17001,2071.91
17004,2075.20
17007,2090.61
17010,2099.79
17013,2090.81
17016,2072.50
17019,2064.59
17022,2075.58
17025,2093.08
17028,2098.19
17031,2087.09
17034,2075.07
17037,2078.60
17040,2096.03
17043,2109.10
17046,2103.72
17049,2086.35
17052,2076.83
17055,2085.97
17058,2103.42
17061,2109.75
17064,2098.77
17068,2084.21
17070,2083.84
17073,2098.43
17076,2111.31
17079,2107.70
17082,2092.05
17085,2083.06
17088,2092.07
17091,2109.49
17094,2115.33
17097,2102.14
17100,2083.73
17103,2079.91
17106,2094.22
17109,2110.12
17112,2110.10
17115,2095.62
17118,2085.41
17121,2093.57
17124,2113.72
17127,2125.93
17130,2119.36
17133,2104.15
17136,2099.39
17139,2110.80
17142,2124.32
17145,2122.65
17148,2105.54
17151,2090.57
17154,2093.34
17157,2109.69
17160,2120.70
17163,2114.38
17166,2099.50
17169,2095.24
17172,2108.83
17175,2126.63
17178,2129.61
17181,2115.02
17184,2099.71
17187,2101.01
17190,2117.17
17193,2129.51
17196,2123.82
17199,2106.80
17202,2098.41
17205,2109.08
17208,2127.84
17211,2134.57
17214,2122.92
17217,2107.06
17220,2105.08
17223,2118.45
17226,2130.85
17229,2127.51
17232,2112.83
17235,2105.40
17238,2116.57
17241,2137.01
17244,2147.05
17247,2138.92
17250,2125.35
17253,2124.67
17256,2139.51
17259,2153.55
17262,2150.36
17265,2132.56
17268,2119.47
17271,2125.61
17274,2144.39
17277,2155.84
17280,2149.38
17283,2135.63
17286,2133.76
17289,2149.34
17292,2167.93
17295,2171.73
17298,2160.13
17301,2150.11
17304,2156.53
17307,2174.74
17310,2185.93
17313,2179.35
17316,2165.45
17319,2164.39
17322,2183.05
17325,2206.59
17328,2214.47
17331,2202.53
17334,2186.49
17337,2183.14
17340,2191.04
17343,2193.11
17346,2177.84
17349,2154.08
17352,2142.21
17355,2151.02
17358,2167.11
17361,2169.42
17364,2152.42
17367,2131.89
17370,2126.83
17373,2138.13
17376,2148.19
17379,2141.57
17381,2123.00
17384,2111.47
17387,2117.97
17390,2131.63
17393,2131.18
17396,2109.54
17399,2083.84
17402,2078.48
17405,2099.13
17408,2126.09
17411,2134.46
17414,2119.88
17417,2101.63
17420,2100.94
17423,2118.37
17426,2134.72
17429,2133.35
17432,2118.05
17435,2107.64
17438,2113.34
17441,2125.85
17444,2127.66
17447,2116.73
17450,2114.92
17453,2151.47
17456,2239.94
17459,2373.49
17462,2543.38
17465,2752.80
17468,3004.02
17471,3270.16
17474,3484.84
17478,3569.28
17480,3479.48
17484,3234.03
17486,2899.86
17489,2551.22
19696,2239.89
19699,1992.76
19702,1826.84
19705,1752.85
19709,1765.83
19711,1838.41
19713,1931.43
19716,2010.49
19719,2056.55
19722,2065.58
19725,2043.50
19728,2004.90
19731,1971.85
19734,1964.93
19737,1988.14
19740,2023.10
19743,2043.63
19746,2039.15
19749,2024.32
19752,2020.88
19755,2034.73
19758,2050.87
19761,2052.17
19764,2039.10
19767,2029.42
19770,2037.78
19773,2058.60
19776,2072.39
19779,2067.86
19782,2054.70
19785,2052.17
19787,2066.54
19790,2083.70
19793,2085.10
19796,2069.43
19799,2055.64
19802,2062.69
19805,2087.91
19808,2108.52
19811,2105.26
19814,2082.44
19817,2063.02
19820,2063.97
19823,2079.22
19826,2088.04
19829,2078.89
19833,2061.74
19835,2056.07
19838,2068.36
19841,2084.83
19844,2087.40
19847,2074.49
19850,2062.85
19853,2067.91
19856,2085.77
19859,2097.09
19862,2088.76
19865,2068.90
19868,2057.89
19871,2065.76
19874,2081.62
19877,2086.88
19880,2076.69
19883,2064.94
19886,2066.97
19889,2081.47
19892,2091.36
19895,2083.88
19898,2066.10
19901,2057.62
19904,2068.73
19907,2088.49
19910,2096.65
19912,2086.39
19915,2071.17
19918,2069.09
19921,2081.75
19924,2091.86
19927,2082.79
19930,2058.51
19933,2041.04
19936,2047.72
19939,2072.34
19941,2091.63
19944,2089.65
19947,2074.03
19950,2067.01
19953,2080.74
19956,2103.66
19959,2112.90
19962,2098.81
19965,2076.12
19968,2068.32
19971,2082.92
19974,2103.91
19977,2109.71
19980,2096.18
19983,2079.91
19986,2078.90
19989,2092.82
19992,2104.43
19995,2099.84
19998,2084.80
20001,2077.70
20004,2088.02
20007,2104.76
20010,2109.00
20013,2095.74
20016,2080.18
20019,2080.93
20022,2098.93
20025,2116.56
20028,2117.34
20031,2104.37
20034,2095.83
20038,2103.71
20040,2119.56
20043,2124.33
20046,2110.51
20049,2091.40
20052,2086.59
20055,2100.12
20058,2116.44
20061,2118.18
20064,2105.83
20067,2096.43
20070,2103.29
20073,2120.29
20076,2128.98
20079,2120.20
20082,2105.07
20085,2102.59
20088,2117.74
20091,2135.50
20094,2137.80
20097,2123.89
20100,2111.34
20103,2116.12
20106,2134.54
20109,2147.56
20112,2142.52
20115,2127.39
20118,2121.38
20121,2133.00
20124,2150.64
20127,2156.37
20130,2146.95
20133,2137.51
20136,2143.56
20139,2162.36
20142,2175.40
20145,2169.27
20148,2151.91
20151,2144.60
20154,2158.91
20157,2183.97
20160,2198.47
20163,2193.63
20166,2181.25
20169,2178.29
20172,2186.53
20175,2191.02
20178,2178.63
20181,2155.00
20184,2139.49
20187,2143.69
20190,2157.86
20193,2161.32
20196,2145.72
20199,2124.18
20202,2116.51
20205,2126.80
20208,2139.10
20211,2135.97
20214,2118.18
20217,2103.36
20220,2105.41
20223,2118.55
20226,2124.12
20229,2112.41
20232,2094.24
20235,2088.63
20238,2100.92
20241,2116.45
20244,2117.35
20247,2102.77
20250,2089.90
20253,2094.27
20256,2111.93
20259,2124.23
20262,2119.37
20265,2105.54
20268,2100.95
20271,2111.88
20274,2124.64
20277,2121.39
20280,2102.63
20283,2091.19
20286,2113.41
20289,2179.09
20292,2281.31
20295,2416.02
20298,2594.77
20301,2829.43
20304,3102.59
20307,3355.65
20310,3511.79
20313,3517.52
20316,3369.07
20319,3104.82
20322,2778.63
20325,2440.07
20328,2132.74
20331,1897.40
20334,1763.40
20337,1731.51
20340,1768.64
20343,1828.35
20346,1880.45
20349,1922.84
20352,1966.65
20355,2013.08
20358,2047.72
20361,2057.45
20364,2048.14
20367,2041.20
20370,2052.18
20373,2074.96
20376,2090.11
20379,2087.76
20382,2079.06
20385,2083.24
20388,2105.39
20391,2130.03
20394,2138.36
20397,2129.23
20400,2119.85
20403,2126.09
20406,2144.40
20409,2156.63
20412,2151.47
20415,2137.86
20418,2134.90
20421,2149.72
20424,2168.97
20427,2173.81
20430,2161.52
20433,2148.78
20436,2152.88
20439,2172.23
20442,2188.31
20445,2186.97
20448,2174.52
20451,2170.26
20454,2184.08
20457,2205.09
20460,2213.98
20463,2205.30
20466,2193.89
20469,2198.14
20472,2219.19
20475,2239.78
20478,2243.90
20481,2234.81
20484,2230.67
20487,2243.32
20490,2264.61
20493,2276.19
20496,2271.02
20499,2261.71
20502,2265.96
20505,2285.97
20508,2305.74
20511,2309.70
20514,2300.98
20517,2298.48
20520,2315.47
20523,2344.27
20526,2364.73
20529,2366.64
20532,2361.02
20535,2367.16
20538,2390.31
20541,2415.86
20544,2426.32
20547,2421.52
20550,2418.83
20552,2432.80
20555,2458.06
20558,2474.51
20561,2469.96
20564,2454.49
20567,2450.55
20570,2468.49
20573,2494.56
20576,2504.99
20579,2491.00
20582,2467.40
20585,2455.50
20588,2459.76
20591,2463.57
20594,2448.26
20597,2413.66
20600,2377.44
20603,2354.88
20606,2341.64
20609,2319.27
20612,2277.17
20615,2225.74
20618,2185.26
20621,2163.43
20624,2147.15
20627,2118.11
20630,2074.25
20633,2032.66
20636,2010.40
20639,2005.48
20642,1999.47
20645,1978.83
20648,1950.43
20651,1933.22
20654,1935.94
20657,1946.55
20660,1945.87
20663,1929.22
20666,1911.68
20669,1910.69
20672,1926.03
20675,1940.08
20678,1938.25
20681,1925.81
20684,1921.57
20687,1936.15
20690,1959.21
20693,1970.83
20696,1963.93
20699,1951.87
20702,1952.95
20705,1969.47
20708,1985.52
20711,1985.44
20714,1971.95
20717,1962.92
20720,1970.48
20723,1986.80
20726,1993.31
20729,1982.56
20732,1967.64
20735,1968.09
20738,1987.90
20741,2010.74
20744,2018.16
20747,2009.70
20750,2002.52
20753,2010.95
20756,2029.83
20759,2040.52
20762,2032.87
20765,2017.62
20768,2014.62
20771,2030.21
20774,2049.74
20777,2054.02
20780,2040.79
20783,2027.34
20786,2030.71
20789,2048.63
20792,2062.44
20795,2058.53
20798,2043.71
20801,2036.90
20804,2046.97
20807,2062.06
20810,2063.24
20813,2046.39
20816,2027.33
20819,2024.14
20822,2037.03
20825,2048.37
20828,2043.20
20831,2026.43
20834,2017.04
20837,2026.35
20840,2044.87
20843,2053.32
20846,2044.71
20849,2032.28
20852,2033.91
20855,2051.09
20858,2066.82
20861,2064.54
20864,2047.08
20867,2033.53
20870,2037.83
20873,2053.39
20876,2061.66
20879,2053.58
20882,2040.14
20885,2039.10
20888,2053.91
20891,2069.09
20894,2067.72
20897,2050.96
20900,2037.15
20903,2041.22
20906,2057.80
20910,2067.39
20912,2058.70
20915,2041.54
20918,2035.57
20921,2048.00
20924,2065.54
20927,2069.75
20930,2058.20
20933,2047.00
20936,2052.01
20939,2070.35
20942,2083.36
20945,2077.85
20948,2061.23
20951,2053.09
20954,2062.94
20957,2079.50
20960,2083.87
20963,2071.16
20966,2055.78
20969,2054.49
20972,2067.07
20975,2077.03
20978,2071.31
20981,2056.14
20984,2050.30
20987,2063.43
20990,2084.02
20993,2091.75
20996,2080.00
20999,2063.24
21002,2060.71
21005,2075.02
21008,2089.97
21011,2089.70
21014,2077.09
21017,2070.00
21020,2080.16
21023,2099.05
21026,2107.19
21029,2096.56
21032,2080.33
21035,2078.41
21038,2095.30
21041,2115.20
21044,2119.97
21047,2109.27
21050,2100.25
21053,2107.26
21056,2125.02
21059,2134.90
21062,2126.77
21064,2111.02
21067,2106.88
21070,2120.31
21073,2136.10
21076,2134.59
21079,2114.58
21082,2096.90
21085,2103.24
21088,2133.11
21091,2163.23
21094,2170.95
21097,2156.05
21100,2138.32
21103,2134.79
21106,2142.31
21109,2143.68
21112,2129.34
21115,2109.44
21118,2102.64
21121,2114.23
21124,2129.25
21127,2128.52
21130,2109.66
21133,2089.18
21136,2083.55
21139,2090.91
21142,2094.56
21145,2083.17
21148,2064.87
21151,2057.95
21154,2069.50
21157,2086.72
21160,2091.04
21163,2079.35
21166,2067.69
21169,2072.73
21172,2092.41
21175,2107.67
21178,2103.65
21181,2086.39
21184,2075.86
21187,2083.48
21190,2099.50
21193,2104.49
21196,2091.81
21199,2074.76
21202,2071.12
21205,2082.98
21208,2095.77
21211,2098.58
21214,2102.53
21217,2136.05
21220,2222.49
21223,2363.10
21226,2543.94
21229,2753.40
21232,2984.12
21235,3215.04
21238,3395.28
21241,3456.75
21244,3354.37
21247,3100.22
21250,2760.76
21253,2418.18
21256,2129.86
21259,1916.93
21262,1780.86
21265,1720.90
21268,1732.56
21271,1795.09
21274,1872.49
21277,1932.89
21280,1968.36
21283,1993.93
21286,2025.29
21289,2059.85
21292,2081.05
21295,2079.84
21298,2067.90
21301,2066.51
21304,2084.05
21307,2107.43
21310,2117.54
21313,2111.07
21316,2103.86
21319,2112.29
21322,2134.13
21325,2151.00
21328,2149.74
21331,2137.84
21334,2135.23
21337,2151.37
21340,2174.28
21343,2183.91
21346,2174.86
21349,2162.50
21352,2165.40
21355,2184.15
21358,2200.88
21361,2199.80
21364,2185.41
21367,2177.67
21370,2189.57
21374,2212.70
21376,2226.88
21379,2223.21
21382,2212.68
21385,2212.10
21388,2224.02
21391,2233.95
21394,2228.53
21397,2213.00
21400,2206.99
21403,2223.05
21406,2251.69
21409,2270.95
21412,2269.93
21415,2260.25
21418,2262.36
21421,2282.21
21424,2304.97
21427,2312.90
21430,2305.47
21433,2300.21
21436,2312.36
21439,2337.37
21442,2356.03
21445,2356.48
21448,2348.02
21451,2350.80
21454,2372.86
21457,2401.16
21460,2416.43
21463,2415.12
21466,2412.99
21469,2426.37
21472,2453.16
21475,2475.07
21477,2478.96
21480,2471.97
21483,2473.59
21486,2493.14
21489,2517.71
21492,2525.58
21495,2510.49
21498,2489.81
21501,2486.69
21504,2505.01
21507,2524.90
21510,2523.46
21513,2498.44
21516,2469.22
21519,2454.69
21522,2452.84
21525,2444.14
21528,2413.72
21531,2367.99
21534,2326.65
21537,2300.04
21540,2278.17
21543,2243.56
21546,2192.99
21549,2142.80
21552,2110.89
21555,2096.52
21558,2081.05
21561,2049.30
21564,2007.23
21567,1975.70
21570,1967.32
21574,1972.65
21576,1970.98
21579,1953.73
21582,1933.13
21585,1926.88
21588,1937.14
21591,1947.97
21594,1944.08
21597,1929.14
21600,1921.64
21603,1933.32
21606,1954.62
21609,1964.77
21612,1954.84
21615,1938.26
21618,1935.86
21621,1952.61
21624,1972.32
21627,1976.54
21630,1965.25
21633,1956.55
21636,1965.68
21639,1987.21
21642,2001.46
21645,1997.11
21648,1984.53
21651,1983.87
21654,2002.09
21657,2024.82
21660,2032.35
21663,2021.97
21666,2010.51
21669,2014.79
21672,2032.44
21675,2044.92
21678,2039.31
21681,2023.79
21684,2018.44
21687,2032.32
21690,2052.93
21693,2060.29
21696,2049.72
21699,2036.90
21702,2039.93
21705,2058.34
21708,2073.53
21711,2070.05
21714,2053.17
21717,2042.89
21720,2051.07
21723,2068.02
21726,2073.91
21729,2061.83
21732,2045.79
21735,2044.68
21738,2060.35
21741,2075.35
21744,2072.71
21747,2055.31
21750,2042.87
21753,2049.38
21756,2067.51
21759,2077.10
21762,2068.14
21765,2052.08
21768,2048.17
21771,2061.23
21774,2076.01
21777,2074.87
21780,2058.19
21784,2044.18
21786,2048.18
21789,2065.20
21792,2075.97
21795,2069.15
21798,2054.51
21801,2051.42
21804,2066.37
21807,2085.00
21810,2088.23
21813,2073.87
21816,2059.00
21819,2060.52
21822,2076.03
21825,2086.96
21828,2080.17
21831,2063.28
21834,2056.00
21837,2067.39
21840,2085.30
21843,2090.13
21846,2077.17
21849,2062.00
21852,2062.72
21855,2079.34
21858,2094.08
21861,2091.72
21864,2077.04
21867,2068.86
21870,2078.10
21873,2094.85
21876,2099.76
21879,2086.48
21882,2069.74
21885,2068.89
21887,2086.02
21890,2103.23
21893,2102.46
21896,2086.02
21899,2074.84
21902,2085.39
21905,2111.00
21908,2128.05
21911,2121.06
21914,2098.89
21917,2084.88
21920,2091.54
21923,2108.08
21926,2113.48
21929,2100.65
21932,2084.10
21935,2083.71
21938,2102.59
21941,2123.96
21944,2130.12
21947,2121.76
21950,2115.82
21953,2124.90
21956,2142.12
21959,2149.29
21962,2138.52
21965,2122.39
21968,2120.58
21971,2138.14
21974,2159.75
21977,2167.06
21980,2158.71
21983,2150.61
21987,2156.41
21989,2170.86
21992,2175.58
21995,2160.23
21998,2135.13
22001,2120.26
22004,2123.39
22007,2132.21
22010,2129.17
22013,2112.08
22016,2096.60
22019,2097.81
22022,2112.03
22025,2120.32
22028,2109.61
22031,2087.82
22034,2075.17
22037,2081.74
22040,2096.68
22043,2101.10
22046,2089.73
22049,2076.46
22052,2077.76
22055,2093.13
22058,2105.45
22061,2100.64
22064,2084.18
22067,2075.10
22070,2084.35
22073,2102.25
22076,2109.66
22079,2099.92
22082,2086.30
22086,2086.32
22088,2101.09
22091,2113.66
22094,2107.93
22097,2087.34
22100,2072.11
22103,2078.78
22106,2106.40
22109,2145.29
22112,2198.20
22115,2287.84
22118,2440.02
22121,2657.39
22124,2909.85
22127,3149.23
22130,3331.16
22133,3423.97
22136,3404.27
22139,3256.54
22142,2986.66
22145,2637.67
22148,2284.55
22151,2001.82
22154,1826.96
22157,1749.92
22160,1735.71
22163,1756.26
22166,1802.36
22169,1869.80
22172,1943.14
22175,1998.55
22178,2023.20
22181,2027.65
22184,2034.73
22187,2055.89
22190,2080.79
22193,2091.43
22196,2084.30
22199,2075.44
22202,2082.69
22205,2105.70
22208,2126.53
22211,2130.10
22214,2121.05
22217,2117.77
22220,2130.84
22223,2150.64
22226,2158.59
22229,2149.28
22232,2137.35
22235,2141.14
22238,2161.81
22241,2181.61
22244,2183.76
22247,2171.08
22250,2162.47
22253,2170.96
22256,2189.00
22259,2197.51
22262,2188.31
22265,2174.08
22268,2174.17
22271,2192.46
22274,2212.55
22277,2216.27
22280,2203.89
22283,2193.68
22286,2201.02
22289,2221.09
22292,2234.89
22296,2231.12
22298,2219.33
22301,2218.52
22304,2235.58
22307,2257.63
22310,2267.14
22313,2262.38
22316,2259.17
22319,2272.21
22322,2297.41
22325,2315.84
22328,2315.22
22331,2304.45
22334,2303.99
22337,2323.15
22340,2349.98
22343,2365.02
22346,2363.51
22349,2359.94
22352,2371.05
22355,2396.05
22358,2417.60
22361,2422.28
22364,2416.63
22367,2420.08
22370,2442.32
22373,2471.55
22376,2487.25
22379,2483.03
22382,2473.52
22385,2477.27
22388,2495.35
22391,2510.00
22394,2505.35
22397,2485.95
22400,2471.82
22403,2475.52
22406,2487.54
22409,2486.94
22412,2464.84
22415,2433.84
22418,2412.54
22421,2403.30
22424,2388.90
22427,2352.31
22430,2297.20
22433,2245.13
22436,2212.62
22439,2193.68
22442,2167.96
22445,2124.88
22448,2076.05
22451,2042.13
22454,2029.42
22457,2023.07
22460,2004.71
22463,1973.96
22466,1948.92
22469,1944.96
22472,1956.22
22475,1961.75
22478,1948.93
22481,1927.73
22484,1919.28
22487,1931.59
22490,1950.41
22493,1955.28
22496,1942.62
22499,1929.70
22501,1934.51
22504,1955.00
22507,1971.14
22510,1967.50
22513,1951.42
22516,1945.72
22519,1963.36
22522,1992.28
22525,2007.16
22528,1996.05
22531,1972.83
22534,1962.26
22537,1973.95
22540,1993.63
22543,2000.56
22546,1990.79
22549,1980.55
22552,1987.09
22555,2008.69
22558,2026.38
22561,2025.54
22564,2012.38
22567,2006.32
22570,2017.57
22573,2035.25
22576,2040.27
22579,2027.63
22582,2012.68
22585,2013.83
22588,2031.56
22591,2048.00
22594,2047.17
22598,2033.11
22600,2025.18
22603,2035.54
22605,2055.30
22608,2064.83
22611,2056.45
22614,2044.02
22617,2048.02
22620,2071.77
22623,2095.92
22626,2097.82
22629,2075.58
22632,2050.09
22635,2043.23
22638,2055.69
22641,2068.10
22644,2063.60
22647,2046.19
22650,2035.16
22653,2042.96
22656,2061.14
22659,2070.06
22662,2061.16
22665,2046.35
22668,2043.88
22671,2057.19
22674,2071.17
22677,2069.95
22680,2055.50
22683,2045.62
22686,2053.35
22689,2071.59
22692,2080.68
22695,2070.64
22698,2052.63
22701,2046.29
22704,2057.62
22706,2072.50
22709,2073.05
22712,2058.41
22715,2046.61
22718,2054.32
22721,2077.22
22724,2093.14
22727,2085.31
22730,2060.74
22733,2043.02
22736,2047.52
22739,2065.98
22742,2076.70
22745,2068.61
22748,2052.69
22751,2048.40
22754,2061.45
22757,2077.36
22760,2078.17
22763,2063.31
22766,2050.17
22769,2054.29
22772,2071.56
22775,2083.02
22778,2076.69
22781,2061.30
22784,2056.23
22787,2069.08
22790,2086.41
22793,2088.88
22796,2073.23
22799,2056.22
22803,2055.93
22805,2071.66
22808,2085.28
22811,2082.14
22814,2067.50
22817,2059.85
22820,2069.32
22823,2085.84
22826,2091.12
22829,2080.16
22832,2067.32
22835,2069.82
22838,2087.58
22841,2102.85
22844,2100.18
22847,2084.08
22850,2073.91
22853,2081.90
22856,2099.25
22859,2106.49
22862,2095.77
22865,2080.17
22868,2078.73
22871,2094.91
22874,2112.82
22877,2115.71
22880,2105.24
22883,2099.39
22886,2111.54
22889,2134.61
22892,2148.68
22895,2143.46
22898,2129.66
22901,2126.54
22905,2140.07
22907,2156.50
22910,2159.14
22912,2147.93
22915,2139.23
22918,2146.59
22921,2163.46
22924,2168.77
22927,2150.21
22930,2119.68
22933,2102.72
22936,2112.42
22939,2135.87
22942,2147.87
22945,2137.08
22948,2116.56
22951,2108.15
22954,2118.32
22957,2132.38
22960,2131.47
22963,2113.62
22966,2095.40
22969,2092.49
22972,2101.88
22975,2106.12
22978,2094.49
22981,2076.05
22984,2069.55
22987,2081.60
22990,2098.49
22993,2101.38
22996,2087.37
22999,2072.74
23002,2074.24
23005,2089.86
23008,2101.16
23011,2094.43
23014,2076.76
23017,2068.01
23020,2078.11
23023,2095.52
23026,2100.26
23029,2086.29
23032,2068.00
23035,2063.90
23038,2076.78
23041,2094.06
23044,2108.01
23047,2133.08
23050,2199.29
23053,2328.14
23056,2515.76
23059,2740.06
23062,2977.46
23065,3206.46
23068,3394.87
23071,3491.30
23074,3442.75
23077,3231.03
23080,2896.58
23083,2523.44
23086,2194.79
23089,1955.21
23092,1807.11
23095,1734.80
23098,1725.75
23101,1769.48
23104,1844.64
23107,1919.13
23110,1967.25
23112,1987.73
23115,2000.11
23118,2021.89
23121,2049.71
23124,2064.32
23127,2054.41
23130,2032.23
23133,2023.48
23136,2041.63
23139,2074.26
23142,2096.52
23145,2097.10
23148,2088.54
23151,2091.51
23154,2111.50
23157,2133.29
23160,2138.83
23163,2127.70
23166,2117.48
23169,2123.74
23172,2142.43
23175,2155.08
23178,2150.46
23181,2137.66
23184,2135.82
23187,2151.74
23190,2171.76
23193,2176.93
23196,2164.64
23199,2151.57
23202,2155.21
23205,2174.22
23208,2190.46
23211,2189.87
23214,2178.26
23217,2174.25
23220,2187.40
23223,2207.32
23226,2215.81
23229,2208.30
23232,2199.40
23235,2206.11
23238,2227.94
23241,2246.94
23244,2248.01
23247,2235.99
23250,2230.29
23253,2242.90
23256,2265.24
23259,2278.44
23262,2275.38
23265,2268.76
23268,2276.30
23271,2299.89
23274,2323.07
23277,2329.82
23280,2323.02
23283,2321.41
23286,2338.11
23289,2365.54
23292,2384.05
23295,2384.22
23298,2377.64
23301,2383.59
23304,2406.95
23307,2432.48
23310,2442.24
23313,2435.81
23316,2430.70
23319,2442.01
23322,2465.08
23325,2480.83
23328,2477.67
23331,2464.63
23334,2460.73
23337,2472.75
23340,2487.04
23343,2484.56
23346,2462.26
23349,2436.12
23352,2422.36
23355,2418.75
23358,2407.13
23361,2374.46
23364,2328.22
23367,2288.15
23370,2264.23
23373,2245.89
23376,2214.84
23379,2167.00
23382,2117.90
23385,2085.87
23388,2071.97
23391,2059.63
23394,2034.27
23397,2000.36
23400,1976.05
23403,1971.79
23406,1977.50
23409,1973.67
23412,1953.16
23415,1929.22
23418,1920.28
23421,1928.75
23423,1938.74
23426,1934.71
23429,1920.07
23432,1914.61
23435,1932.09
23438,1963.03
23441,1982.53
23444,1975.69
23447,1953.03
23450,1939.31
23453,1947.66
23456,1967.12
23459,1976.39
23462,1967.82
23465,1954.87
23468,1955.79
23471,1972.39
23474,1987.64
23477,1985.26
23480,1968.56
23483,1957.20
23486,1965.27
23489,1985.62
23492,1998.35
23495,1993.27
23498,1980.90
23501,1979.87
23504,1994.94
23507,2011.76
23510,2013.63
23513,2001.22
23516,1992.02
23519,2000.25
23522,2020.35
23525,2033.08
23528,2027.22
23531,2012.20
23534,2007.12
23537,2018.85
23540,2034.51
23543,2036.54
23546,2023.32
23549,2011.10
23552,2015.30
23555,2032.75
23558,2045.07
23561,2039.67
23564,2024.04
23567,2016.90
23570,2026.68
23573,2041.96
23576,2044.90
23579,2032.04
23582,2018.56
23585,2020.63
23588,2036.67
23591,2048.62
23594,2042.56
23597,2024.70
23600,2014.73
23603,2023.54
23606,2040.93
23609,2047.39
23612,2036.27
23615,2021.10
23618,2019.83
23622,2034.10
23624,2047.38
23627,2044.22
23631,2027.91
23633,2016.66
23636,2022.61
23639,2038.07
23642,2045.00
23645,2036.23
23648,2024.35
23651,2026.88
23654,2045.28
23657,2061.85
23660,2058.99
23663,2039.10
23666,2022.63
23669,2025.95
23672,2043.70
23675,2055.84
23678,2050.08
23681,2035.26
23684,2030.09
23687,2041.18
23690,2055.34
23693,2055.21
23696,2039.83
23699,2026.33
23702,2030.57
23705,2048.76
23708,2061.70
23711,2056.49
23714,2041.17
23717,2035.46
23720,2047.93
23723,2066.24
23726,2071.15
23729,2058.84
23732,2045.39
23735,2048.40
23738,2066.72
23741,2081.43
23744,2077.18
23747,2059.50
23750,2048.44
23753,2055.86
23756,2072.27
23759,2077.94
23762,2065.57
23765,2048.61
23768,2045.66
23771,2059.50
23774,2074.04
23777,2073.23
23780,2059.41
23783,2050.35
23786,2058.58
23789,2076.60
23792,2085.66
23795,2077.34
23798,2063.52
23801,2062.65
23804,2078.33
23807,2094.71
23810,2094.41
23813,2078.18
23816,2064.16
23819,2067.32
23822,2082.39
23825,2090.32
23828,2080.45
23831,2063.12
23834,2058.19
23837,2072.29
23840,2091.06
23843,2095.23
23846,2082.56
23849,2070.46
23852,2076.26
23855,2097.75
23858,2115.86
23861,2116.05
23864,2104.22
23867,2098.87
23870,2109.26
23873,2124.68
23876,2127.42
23879,2114.14
23882,2100.82
23885,2105.28
23888,2126.62
23891,2145.85
23894,2146.68
23897,2132.94
23900,2123.08
23903,2128.39
23906,2140.00
23910,2139.65
23912,2121.52
23915,2099.71
23918,2092.76
23921,2102.67
23924,2112.79
23927,2107.02
23930,2088.09
23933,2074.18
23935,2077.33
23938,2089.39
23941,2091.22
23944,2075.24
23947,2055.73
23950,2054.15
23953,2074.71
23956,2097.90
23959,2100.03
23962,2078.22
23965,2053.49
23968,2048.52
23971,2064.22
23974,2080.23
23977,2078.31
23980,2062.07
23983,2051.74
23986,2060.79
23989,2080.37
23992,2089.52
23995,2079.18
23998,2062.24
24001,2058.19
24004,2070.35
24007,2082.21
24010,2077.95
24013,2064.02
24016,2067.25
24019,2112.11
24022,2202.11
24025,2325.95
24028,2480.41
24031,2677.49
24035,2922.43
24037,3184.07
24040,3392.40
24043,3472.23
24046,3387.64
24049,3159.96
24052,2847.76
24055,2512.35
24058,2199.28
24061,1941.87
24064,1768.22
24067,1693.97
24070,1706.76
24073,1766.38
24076,1829.44
24079,1876.19
24082,1914.42
24085,1958.36
24088,2006.23
24091,2040.09
24094,2047.58
24097,2038.30
24100,2035.37
24103,2051.06
24106,2074.29
24109,2084.45
24112,2075.87
24115,2064.93
24118,2071.68
24121,2096.87
24124,2120.74
24127,2124.88
24130,2112.24
24134,2102.99
24136,2111.40
26482,2129.50
26485,2137.19
26488,2126.67
26491,2113.08
26494,2121.97
26497,2164.03
26500,2220.59
26503,2254.00
26505,2235.95
26508,2170.81
26511,2093.64
26514,2045.24
26517,2043.31
26520,2071.61
26523,2095.75
26526,2092.17
26529,2066.03
26532,2043.65
26535,2045.35
26538,2065.01
26541,2079.04
26544,2072.56
26547,2054.88
26550,2047.46
26553,2059.43
26556,2077.65
26559,2081.81
26562,2067.91
26565,2052.63
26568,2053.93
26571,2070.41
26574,2083.04
26577,2077.32
26580,2060.04
26583,2051.68
26586,2062.58
26589,2080.76
26592,2085.50
26594,2071.41
26598,2054.51
26600,2054.58
26603,2071.83
26606,2085.93
26609,2078.34
26612,2054.08
26615,2037.93
26618,2048.43
26621,2077.82
26624,2099.84
26627,2097.21
26630,2078.70
26633,2067.87
26636,2076.53
26639,2092.88
26642,2096.16
26645,2080.81
26648,2063.38
26651,2063.26
26654,2080.60
26657,2095.54
26660,2090.58
26663,2070.45
26666,2056.79
26669,2063.88
26672,2082.83
26675,2092.27
26678,2082.84
26681,2067.55
26684,2066.34
26687,2082.85
26690,2099.97
26694,2099.58
26696,2083.53
26699,2071.86
26702,2080.38
26705,2103.05
26708,2119.06
26711,2116.52
26714,2105.26
26717,2104.48
26720,2119.79
26723,2136.40
26726,2136.35
26729,2119.93
26732,2106.40
26736,2112.59
26738,2134.12
26741,2150.25
26744,2147.25
26747,2133.20
26750,2127.83
26753,2138.78
26756,2152.29
26759,2148.87
26762,2126.33
26765,2103.32
26768,2099.02
26771,2111.85
26774,2121.52
26777,2112.07
26780,2089.66
26783,2074.92
26786,2079.24
26789,2091.66
26792,2092.18
26795,2075.25
26798,2056.88
26801,2056.60
26804,2075.18
26807,2093.48
26810,2093.90
26813,2079.84
26816,2071.04
26819,2080.53
26822,2099.43
26825,2107.18
26828,2095.16
26831,2076.64
26834,2071.60
26837,2083.82
26840,2097.15
26843,2094.22
26846,2076.63
26849,2062.67
26852,2065.66
26855,2078.17
26858,2080.75
26861,2066.00
26864,2050.92
26867,2063.49
26870,2119.20
26873,2212.98
26876,2335.99
26879,2495.16
26882,2706.82
26885,2967.03
26888,3229.55
26891,3418.29
26894,3468.34
26897,3361.36
26900,3128.07
26903,2822.27
26906,2494.92
26910,2187.50
26912,1937.67
26915,1777.53
26918,1718.05
26921,1736.80
26924,1789.99
26927,1841.81
26930,1883.71
26933,1926.48
26936,1976.05
26939,2020.47
26942,2041.91
26945,2038.31
26948,2028.40
26951,2033.09
26954,2054.10
26957,2073.51
26960,2075.42
26963,2064.48
26966,2060.49
26969,2075.69
26972,2100.30
26975,2113.70
26978,2107.98
26981,2097.17
26984,2101.29
26987,2123.43
26990,2146.01
26993,2150.46
26996,2137.87
26999,2127.40
27002,2134.39
27005,2153.07
27007,2164.08
27010,2157.04
27013,2143.20
27016,2143.23
27019,2163.46
27022,2187.34
27025,2192.57
27028,2175.62
27031,2156.06
27034,2156.17
27037,2177.38
27040,2199.57
27043,2203.29
27046,2190.51
27049,2181.20
27052,2190.41
27055,2212.02
27058,2226.07
27061,2221.95
27064,2210.45
27067,2211.07
27070,2229.31
27073,2250.45
27076,2256.58
27079,2247.56
27082,2241.49
27085,2254.01
27088,2280.24
27091,2300.11
27094,2301.17
27097,2292.76
27100,2295.37
27104,2317.07
27106,2344.23
27109,2357.12
27112,2352.17
27115,2346.14
27118,2356.98
27121,2383.86
27124,2408.55
27127,2416.49
27130,2413.04
27133,2416.48
27136,2435.74
27139,2459.29
27142,2468.13
27145,2457.76
27148,2444.20
27151,2445.92
27154,2463.02
27157,2477.12
27160,2472.17
27163,2452.65
27166,2438.08
27169,2440.23
27172,2448.96
27175,2443.06
27178,2413.83
27181,2374.62
27184,2345.41
27187,2330.36
27190,2313.82
27193,2279.04
27196,2228.29
27199,2180.81
27202,2151.48
27206,2134.63
27208,2111.26
27211,2071.90
27214,2027.61
27217,1997.20
27220,1985.68
27223,1978.74
27226,1959.99
27229,1930.72
27232,1909.27
27235,1910.11
27238,1926.51
27241,1936.79
27244,1927.70
27247,1908.49
27250,1899.86
27253,1910.20
27256,1926.36
27259,1929.52
27262,1916.71
27265,1904.38
27268,1909.39
27271,1929.57
27274,1946.12
27277,1945.06
27280,1933.14
27283,1930.03
27286,1945.59
27289,1968.39
27292,1978.63
27295,1970.44
27298,1958.75
27301,1961.76
27304,1980.22
27307,1996.72
27310,1995.94
27313,1982.57
27316,1976.05
27319,1988.19
27322,2009.38
27325,2019.36
27328,2010.13
27331,1995.11
27334,1993.94
27337,2010.52
27340,2028.94
27343,2032.01
27346,2021.00
27349,2013.40
27352,2022.16
27355,2040.01
27358,2047.65
27361,2036.13
27364,2017.89
27367,2013.14
27370,2027.38
27373,2045.26
27376,2048.02
27379,2034.48
27382,2022.02
27385,2026.33
27388,2043.30
27391,2054.01
27394,2046.55
27397,2030.03
27400,2024.21
27403,2037.00
27406,2055.23
27409,2059.98
27412,2048.07
27415,2035.47
27418,2038.66
27421,2055.32
27424,2066.88
27427,2060.05
27430,2042.60
27433,2034.83
27436,2046.57
27439,2065.80
27442,2072.05
27445,2059.44
27448,2043.02
27451,2041.45
27454,2055.74
27457,2068.52
27460,2064.33
27463,2047.53
27466,2037.54
27469,2046.33
27472,2064.61
27475,2072.36
27478,2061.72
27481,2045.90
27484,2043.94
27487,2058.83
27490,2073.92
27493,2071.94
27496,2054.63
27499,2040.82
27502,2044.96
27505,2061.02
27508,2070.13
27511,2062.64
27514,2049.53
27517,2049.40
27519,2066.23
27522,2083.96
27525,2084.20
27528,2067.66
27531,2054.98
27534,2064.53
27537,2091.54
27540,2111.72
27543,2106.16
27546,2081.11
27549,2060.85
27552,2062.34
27555,2078.66
27558,2088.75
27561,2081.80
27564,2068.42
27567,2067.15
27570,2082.51
27573,2098.92
27576,2098.40
27579,2081.20
27582,2065.91
27585,2068.79
27588,2085.63
27591,2097.04
27594,2090.77
27597,2075.65
27600,2071.08
27603,2084.22
27606,2101.51
27609,2103.96
27612,2089.01
27616,2073.64
27618,2075.29
27621,2092.20
27624,2105.94
27627,2102.94
27630,2090.42
27633,2088.20
27636,2105.89
27639,2131.37
27642,2143.99
27645,2137.48
27648,2126.25
27651,2128.33
27654,2144.34
27657,2157.03
27660,2151.72
27663,2134.06
27666,2124.52
27669,2135.47
27672,2157.22
27675,2168.42
27678,2159.51
27681,2142.46
27684,2136.10
27687,2144.46
27690,2152.66
27693,2145.15
27696,2124.50
27699,2109.09
27702,2112.01
27705,2125.81
27708,2130.69
27711,2116.81
27714,2095.43
27718,2086.00
27720,2094.19
27723,2105.73
27726,2103.33
27729,2086.61
27732,2072.62
27735,2075.90
27738,2091.71
27741,2101.54
27744,2094.54
27747,2080.34
27750,2077.99
27753,2093.63
27756,2112.51
27759,2115.00
27762,2098.69
27765,2081.26
27768,2080.99
27771,2096.54
27774,2109.09
27777,2103.89
27780,2086.54
27783,2075.66
27786,2081.16
27789,2092.98
27792,2094.14
27795,2083.31
27798,2081.39
27801,2114.40
27804,2193.07
27807,2310.12
27810,2459.47
27813,2649.24
27816,2887.54
27819,3153.24
27822,3384.27
27825,3502.44
27828,3458.30
27831,3258.69
27834,2956.70
27837,2617.60
27840,2293.08
27843,2018.64
27846,1821.90
27849,1721.28
27852,1712.75
27855,1763.19
27858,1828.19
27861,1879.75
27864,1918.54
27867,1959.33
27870,2006.44
27873,2045.76
27876,2061.25
27879,2054.98
27882,2047.41
27885,2056.23
27888,2078.45
27891,2095.44
27894,2095.22
27897,2086.55
27900,2088.58
27903,2108.46
27906,2132.53
27910,2141.67
27912,2133.11
27915,2123.50
27918,2129.99
27921,2150.56
27924,2166.34
27927,2163.29
27930,2148.29
27933,2141.16
27936,2152.22
27939,2170.77
27942,2177.86
27945,2168.30
27948,2156.69
27951,2160.61
27954,2180.10
27957,2197.44
27960,2197.39
27963,2184.74
27966,2178.95
27969,2192.21
27972,2215.37
27975,2228.45
27978,2223.06
27981,2211.32
27984,2211.44
27987,2226.44
27990,2241.02
27993,2239.76
27996,2225.95
27999,2218.75
28002,2231.68
28005,2257.25
28008,2274.92
28011,2274.30
28014,2266.54
28017,2271.37
28020,2294.18
28023,2319.68
28026,2329.15
28029,2321.68
28031,2315.12
28034,2325.83
28037,2350.09
28040,2368.05
28043,2366.60
28046,2355.24
28049,2356.99
28052,2383.39
28055,2421.10
28058,2445.39
28061,2445.57
28064,2435.10
28067,2435.73
28070,2453.93
28073,2475.27
28076,2481.93
28079,2472.95
28082,2464.90
28085,2472.10
28088,2489.50
28091,2497.90
28094,2485.71
28097,2462.20
28100,2446.93
28103,2447.32
28106,2450.24
28109,2436.90
28112,2404.22
28115,2367.74
28118,2343.34
28121,2328.63
28124,2305.66
28128,2261.88
28130,2205.72
28133,2158.21
28137,2130.54
28139,2112.64
28142,2085.95
28145,2045.43
28148,2005.67
28151,1984.10
28154,1981.01
28157,1979.19
28160,1963.66
28163,1938.70
28166,1922.52
28169,1925.58
28172,1938.04
28175,1940.60
28178,1926.68
28181,1910.03
28184,1909.22
28187,1926.09
28190,1943.51
28193,1944.61
28196,1931.82
28199,1923.95
28202,1934.38
28205,1955.57
28208,1967.54
28211,1960.67
28214,1946.67
28217,1945.21
28220,1961.56
28223,1980.63
28226,1984.32
28229,1972.07
28232,1961.65
28236,1968.51
28238,1988.83
28241,2004.26
28244,2003.05
28247,1993.12
28250,1992.02
28253,2005.94
28256,2022.06
28259,2023.26
28262,2008.63
28265,1995.44
28268,2000.07
28271,2019.63
28274,2035.08
28277,2032.76
28280,2019.84
28283,2015.35
28286,2028.50
28289,2047.78
28292,2054.08
28295,2042.65
28298,2028.67
28301,2029.82
28304,2046.02
28307,2059.24
28310,2054.25
28313,2036.20
28316,2025.21
28319,2033.67
28322,2052.29
28325,2060.81
28328,2050.92
28331,2035.42
28334,2033.25
28337,2047.75
28340,2062.97
28343,2062.21
28346,2047.24
28349,2036.01
28352,2041.78
28355,2057.58
28358,2064.30
28361,2052.94
28364,2035.42
28367,2031.39
28370,2045.94
28373,2063.75
28376,2066.31
28379,2052.61
28382,2039.72
28385,2042.76
28388,2057.34
28391,2064.85
28394,2054.23
28397,2035.41
28400,2028.43
28403,2040.90
28406,2059.23
28409,2064.03
28412,2051.83
28415,2038.53
28418,2040.75
28421,2056.69
28424,2068.27
28427,2062.11
28430,2045.23
28433,2037.20
28436,2047.88
28439,2065.95
28442,2071.89
28445,2060.06
28448,2044.85
28451,2043.93
28454,2057.97
28457,2070.26
28460,2066.46
28463,2051.62
28466,2044.60
28469,2056.30
28472,2076.57
28475,2085.30
28478,2074.90
28481,2058.75
28484,2055.77
28487,2068.96
28490,2082.43
28493,2080.09
28496,2064.56
28499,2054.28
28502,2062.22
28505,2080.63
28508,2089.65
28511,2079.84
28514,2063.03
28517,2058.96
28520,2072.79
28523,2089.57
28526,2091.51
28529,2078.34
28532,2067.53
28535,2073.87
28538,2092.04
28541,2102.40
28543,2093.60
28546,2075.65
28549,2069.15
28552,2081.79
28555,2098.79
28558,2098.60
28561,2077.28
28564,2054.38
28567,2052.99
28570,2075.62
28573,2101.65
28576,2109.17
28579,2097.35
28582,2085.11
28585,2088.85
28588,2104.44
28591,2113.20
28594,2103.98
28597,2086.93
28600,2082.51
28603,2098.54
28606,2121.29
28609,2130.88
28612,2123.26
28615,2113.99
28618,2119.71
28621,2138.53
28624,2152.20
28627,2147.11
28630,2130.15
28633,2121.08
28636,2130.40
28640,2148.02
28642,2155.47
28645,2147.71
28648,2138.41
28651,2143.05
28654,2159.51
28657,2168.95
28660,2156.82
28663,2130.31
28666,2111.78
28669,2115.13
28672,2131.31
28675,2138.90
28678,2127.97
28681,2110.03
28684,2103.47
28687,2111.83
28690,2119.88
28693,2112.03
28696,2091.02
28699,2075.63
28702,2079.52
28705,2095.54
28708,2103.90
28711,2094.40
28714,2077.88
28717,2073.39
28720,2086.14
28723,2101.46
28726,2101.72
28729,2086.72
28732,2073.92
28735,2078.42
28738,2095.44
28741,2105.71
28744,2097.51
28747,2080.17
28750,2073.10
28753,2083.41
28756,2097.48
28759,2096.22
28762,2077.16
28765,2057.86
28768,2057.95
28771,2080.63
28774,2115.48
28777,2159.37
28780,2230.30
28783,2356.73
28786,2551.10
28789,2793.97
28792,3042.79
28795,3253.36
28798,3391.49
28801,3429.62
28804,3343.41
28807,3124.21
28810,2799.70
28813,2437.54
28816,2118.86
28819,1897.73
28822,1779.79
28825,1736.30
28828,1736.77
28831,1768.01
28834,1826.04
28837,1897.86
28840,1959.10
28843,1991.43
28846,1999.40
28849,2005.24
28852,2025.41
28855,2054.08
28858,2071.82
28861,2068.98
28864,2057.52
28867,2057.94
28870,2076.49
28873,2098.53
28876,2105.81
28879,2097.34
28882,2090.34
28885,2100.27
28888,2123.02
28891,2139.42
28894,2137.32
28897,2125.19
28900,2122.04
28903,2135.20
28906,2151.91
28910,2154.11
28912,2139.78
28915,2125.97
28918,2129.87
28921,2149.46
28924,2165.97
28927,2165.06
28930,2153.02
28933,2148.94
28936,2162.55
28939,2182.98
28942,2191.34
28945,2182.73
28948,2172.11
28951,2177.29
28954,2198.49
28957,2217.80
28960,2219.29
28963,2206.95
28966,2199.94
28969,2210.75
28972,2231.22
28975,2242.54
28978,2237.43
28981,2228.78
28984,2234.91
28987,2258.26
28990,2282.28
28993,2290.18
28996,2283.74
28999,2281.03
29002,2295.40
29005,2320.12
29008,2336.35
29011,2335.27
29014,2328.67
29017,2335.74
29020,2360.87
29023,2388.46
29026,2400.40
29029,2396.42
29032,2394.06
29035,2408.12
29038,2433.42
29041,2450.66
29044,2448.49
29047,2436.68
29050,2434.91
29053,2450.12
29055,2468.63
29058,2471.81
29061,2457.87
29064,2445.24
29067,2452.47
29070,2476.61
29073,2494.08
29076,2484.35
29079,2450.88
29082,2416.62
29085,2399.48
29088,2394.35
29091,2380.58
29094,2345.88
29097,2299.51
29100,2260.92
29103,2237.52
29106,2216.46
29109,2179.98
29112,2127.03
29115,2075.75
29118,2044.20
29121,2030.98
29124,2017.93
29127,1991.47
29130,1958.15
29133,1936.72
29136,1936.09
29139,1944.51
29142,1942.82
29145,1926.03
29148,1908.86
29152,1908.18
29154,1922.98
29157,1934.89
29160,1928.93
29163,1910.68
29166,1900.44
29169,1910.48
29172,1931.51
29175,1943.35
29178,1937.75
29181,1927.24
29184,1930.10
29187,1948.96
29190,1967.84
29193,1970.35
29196,1958.58
29199,1950.36
29202,1958.59
29205,1976.44
29208,1985.49
29211,1977.49
29214,1964.48
29217,1965.16
29220,1983.40
29223,2003.31
29226,2007.20
29229,1995.67
29232,1986.91
29235,1995.77
29238,2016.84
29241,2030.29
29244,2024.26
29247,2008.35
29250,2002.49
29253,2014.30
29256,2030.70
29259,2033.26
29262,2019.75
29265,2006.89
29268,2011.25
29271,2030.39
29274,2045.82
29277,2044.05
29280,2031.84
29283,2027.74
29286,2040.29
29289,2057.34
29292,2059.63
29295,2043.08
29298,2024.12
29301,2021.82
29304,2036.82
29307,2050.98
29310,2048.10
29313,2031.84
29316,2020.82
29319,2026.91
29322,2041.73
29325,2046.93
29328,2035.96
29331,2022.13
29334,2023.21
29337,2040.50
29340,2056.44
29343,2053.99
29346,2036.06
29349,2022.43
29352,2027.73
29355,2045.37
29358,2055.51
29361,2047.86
29364,2033.24
29367,2030.58
29370,2045.01
29373,2061.90
29376,2063.81
29379,2050.64
29382,2039.64
29385,2045.32
29388,2062.25
29391,2071.00
29394,2060.51
29397,2041.17
29400,2033.50
29403,2045.11
29406,2062.30
29409,2065.94
29412,2053.22
29415,2040.67
29418,2045.00
29421,2063.65
29424,2077.72
29427,2073.26
29430,2057.04
29433,2048.53
29436,2057.40
29439,2072.61
29442,2075.64
29445,2062.19
29448,2047.47
29451,2048.75
29454,2065.35
29457,2078.99
29460,2074.62
29464,2057.66
29466,2048.25
29469,2058.23
29472,2078.43
29475,2089.40
29478,2083.64
29481,2073.80
29484,2077.10
29487,2094.61
29490,2109.04
29493,2104.30
29496,2084.24
29499,2069.10
29502,2073.20
29505,2089.18
29508,2096.75
29511,2085.80
29514,2067.77
29517,2062.09
29520,2074.41
29523,2090.14
29526,2091.53
29529,2077.80
29532,2065.68
29535,2069.81
29538,2085.72
29541,2095.11
29544,2087.20
29547,2071.53
29550,2067.11
29553,2080.54
29556,2098.18
29559,2101.55
29562,2088.63
29565,2076.26
29568,2081.05
29571,2100.29
29574,2115.04
29577,2111.57
29580,2097.22
29583,2092.04
29586,2106.11
29589,2127.92
29592,2137.55
29595,2128.92
29598,2116.30
29601,2117.43
29604,2133.04
29607,2146.64
29610,2144.09
29613,2130.84
29616,2126.02
29619,2140.36
29622,2163.11
29625,2173.23
29628,2162.49
29631,2144.17
29634,2137.59
29637,2146.25
29640,2154.40
29643,2145.71
29646,2122.61
29649,2103.87
29652,2103.40
29655,2114.64
29658,2118.39
29661,2105.20
29664,2086.41
29666,2080.84
29669,2092.86
29672,2106.29
29675,2101.80
29678,2078.75
29681,2057.14
29684,2056.67
29687,2075.62
29690,2092.69
29693,2090.05
29696,2072.11
29699,2059.66
29702,2066.46
29705,2084.39
29708,2093.30
29711,2084.00
29714,2068.15
29717,2064.92
29720,2078.77
29723,2094.14
29726,2092.98
29729,2075.02
29732,2057.87
29735,2057.14
29738,2069.47
29741,2078.60
29744,2078.01
29747,2084.57
29750,2127.36
29753,2224.17
29756,2370.79
29759,2554.33
29762,2768.73
29765,3009.26
29768,3249.85
29771,3431.00
29774,3481.28
29777,3361.22
29780,3092.60
29783,2746.81
29786,2403.17
29789,2113.31
29792,1896.80
29795,1758.85
29798,1702.14
29801,1719.85
29804,1784.99
29807,1858.46
29810,1911.92
29813,1944.15
29816,1972.99
29819,2010.59
29822,2048.82
29825,2070.03
29828,2069.14
29831,2061.50
29834,2066.94
29837,2088.33
29840,2109.14
29843,2112.96
29846,2102.39
29849,2096.11
29852,2107.30
29855,2128.50
29858,2140.18
29861,2133.25
29864,2120.00
29867,2120.20
29870,2138.64
29873,2159.61
29876,2164.53
29879,2152.82
29882,2142.12
29885,2147.90
29888,2165.94
29891,2177.65
29894,2171.91
29897,2158.38
29900,2156.70
29903,2174.07
29906,2196.89
29910,2205.98
29912,2198.26
29915,2189.57
29918,2196.23
29921,2216.09
29924,2231.10
29927,2228.26
29930,2214.88
29933,2210.65
29936,2225.38
29939,2247.99
29942,2259.22
29945,2253.49
29948,2244.77
29951,2250.00
29954,2269.42
29957,2286.55
29960,2287.75
29963,2278.52
29966,2277.63
29969,2295.50
29972,2321.81
29975,2336.70
29978,2333.30
29981,2325.44
29984,2331.80
29987,2354.73
29990,2377.79
29993,2384.93
29996,2379.21
29999,2379.49
30002,2398.66
30005,2428.51
30008,2448.40
30011,2448.41
30014,2440.29
30017,2443.82
30020,2463.97
30023,2485.18
30026,2488.99
30029,2474.87
30032,2460.78
30035,2462.83
30038,2477.30
30041,2485.41
30044,2474.89
30047,2453.53
30050,2439.33
30053,2438.67
30056,2438.31
30059,2420.37
30062,2383.07
30065,2343.14
30068,2316.76
30071,2301.28
30074,2278.35
30077,2235.43
30079,2181.23
30082,2136.75
30085,2112.44
30088,2096.59
30091,2068.76
30094,2023.61
30097,1978.81
30100,1956.97
30103,1961.54
30106,1972.77
30109,1968.50
30112,1946.88
30115,1926.64
30118,1925.34
30121,1939.76
30124,1950.13
30127,1942.66
30130,1924.66
30133,1915.98
30136,1925.87
30139,1942.53
30142,1946.74
30145,1934.27
30148,1920.99
30151,1924.82
30154,1945.26
30157,1963.73
30160,1964.38
30163,1951.87
30166,1945.67
30169,1957.71
30172,1978.93
30176,1990.02
30178,1983.74
30181,1973.18
30184,1976.07
30187,1993.98
30190,2010.12
30193,2008.93
30196,1994.46
30199,1986.47
30202,1998.31
30205,2021.49
30208,2034.95
30211,2028.20
30214,2012.79
30217,2008.76
30220,2022.14
30223,2038.75
30226,2041.14
30229,2029.02
30232,2019.38
30235,2026.58
30238,2045.47
30241,2056.99
30244,2049.76
30247,2033.18
30250,2026.66
30253,2037.66
30256,2053.37
30259,2055.77
30262,2042.58
30265,2029.71
30268,2032.76
30271,2048.71
30274,2059.28
30277,2052.15
30280,2035.42
30283,2028.76
30286,2041.08
30289,2060.05
30292,2065.77
30295,2053.25
30298,2037.51
30301,2036.21
30304,2049.54
30307,2060.47
30310,2054.99
30313,2038.75
30316,2030.89
30319,2042.01
30322,2061.57
30325,2069.45
30328,2058.47
30331,2042.43
30334,2040.25
30337,2054.51
30340,2068.80
30343,2066.79
30346,2050.81
30349,2039.09
30352,2044.65
30355,2060.25
30358,2066.93
30361,2055.97
30364,2039.34
30367,2036.12
30370,2050.67
30373,2067.43
30376,2068.36
30379,2053.48
30382,2040.79
30385,2045.93
30388,2064.48
30391,2077.43
30394,2073.07
30397,2060.28
30400,2057.69
30403,2071.64
30406,2088.28
30409,2089.06
30412,2072.13
30415,2054.90
30418,2054.82
30421,2070.15
30424,2082.38
30427,2077.67
30430,2062.51
30433,2055.77
30436,2066.50
30439,2083.32
30442,2087.57
30445,2074.93
30448,2060.69
30451,2062.38
30454,2079.63
30457,2094.41
30460,2091.49
30463,2075.66
30466,2066.19
30469,2074.78
30472,2092.24
30475,2099.29
30478,2088.80
30481,2073.87
30484,2072.75
30487,2087.78
30490,2102.65
30493,2101.23
30496,2086.14
30499,2075.82
30502,2083.42
30505,2101.69
30508,2111.52
30511,2104.03
30514,2090.91
30517,2091.06
30520,2108.72
30523,2128.27
30526,2131.92
30529,2119.94
30532,2110.29
30535,2117.94
30538,2137.52
30541,2149.47
30544,2142.21
30547,2125.70
30550,2120.18
30553,2133.54
30556,2152.82
30559,2159.38
30562,2150.38
30565,2141.71
30568,2148.86
30571,2168.25
30574,2180.51
30577,2172.09
30580,2150.68
30583,2136.48
30586,2139.90
30589,2150.17
30591,2148.88
30594,2131.45
30597,2112.99
30600,2111.41
30603,2126.28
30606,2137.70
30609,2127.58
30612,2099.77
30615,2076.68
30618,2075.62
30621,2090.77
30624,2100.26
30627,2090.19
30630,2069.50
30633,2059.31
30636,2069.30
30639,2087.53
30642,2093.76
30645,2082.30
30648,2067.87
30651,2068.30
30654,2084.19
30657,2098.55
30660,2096.60
30663,2082.82
30666,2075.41
30669,2084.96
30672,2101.68
30675,2106.28
30678,2092.01
30681,2072.68
30684,2067.27
30688,2079.27
30690,2095.36
30693,2105.41
30696,2121.35
30699,2172.63
30702,2283.16
30705,2452.95
30708,2663.91
30711,2896.53
30714,3133.66
30717,3346.36
30720,3481.97
30723,3479.15
30726,3306.78
30729,2993.96
30732,2620.63
30735,2274.22
30738,2007.64
30741,1830.91
30744,1732.78
30747,1703.25
30750,1734.14
30753,1805.60
30756,1884.34
30759,1940.52
30762,1967.63
30765,1982.84
30768,2005.03
30771,2034.54
30774,2055.39
30777,2056.52
30780,2046.84
30783,2046.64
30786,2065.14
30789,2090.17
30792,2101.98
30795,2095.58
30799,2086.12
30801,2091.66
30804,2112.25
30807,2130.61
30810,2132.47
30813,2123.50
30816,2122.79
30819,2140.43
30822,2164.75
30825,2174.49
30828,2162.53
30831,2144.07
30834,2140.22
30837,2155.01
30840,2172.14
30843,2174.08
30846,2162.20
30849,2154.56
30852,2164.17
30855,2183.91
30858,2194.56
30861,2187.20
30864,2173.62
30867,2173.08
30870,2190.29
30873,2210.08
30876,2214.87
30879,2204.71
30882,2197.21
30885,2207.23
30888,2229.85
30891,2245.90
30894,2244.09
30897,2233.69
30900,2233.70
30903,2250.85
30906,2272.11
30910,2279.99
30912,2273.17
30915,2268.31
30918,2280.98
30921,2307.33
33144,2328.66
33147,2331.43
33150,2324.20
33153,2325.67
33156,2341.59
33159,2356.33
33162,2347.17
33165,2304.78
33168,2239.23
33171,2168.55
33174,2105.82
33177,2057.63
33180,2029.59
33183,2026.21
33186,2043.03
33189,2063.08
33192,2067.47
33195,2052.18
33198,2034.17
33201,2031.68
33204,2045.22
33207,2057.51
33210,2053.50
33213,2037.82
33216,2029.10
33219,2038.25
33222,2055.47
33225,2061.41
33228,2049.52
33231,2033.80
33234,2033.09
33237,2049.47
33240,2065.73
33243,2064.79
33246,2048.77
33249,2036.48
33252,2041.70
33254,2057.68
33257,2065.15
33260,2055.09
33263,2040.05
33266,2041.17
33269,2063.83
33272,2089.73
33275,2094.83
33278,2074.21
33281,2047.27
33284,2037.35
33287,2048.35
33290,2062.99
33293,2063.52
33296,2051.33
33299,2043.59
33302,2052.32
33305,2069.37
33308,2075.20
33311,2061.32
33314,2040.90
33317,2034.62
33320,2048.00
33323,2065.74
33326,2069.23
33329,2057.65
33332,2048.12
33335,2055.61
33338,2075.13
33341,2087.03
33344,2079.23
33347,2060.65
33350,2051.07
33353,2058.56
33356,2070.88
33359,2070.41
33362,2054.98
33365,2040.87
33368,2044.29
33371,2062.68
33374,2077.32
33377,2074.34
33380,2060.27
33383,2054.05
33386,2065.06
33389,2082.32
33392,2087.42
33395,2075.86
33398,2062.66
33401,2064.93
33404,2082.24
33407,2096.76
33410,2093.55
33413,2077.65
33416,2068.30
33419,2076.85
33422,2093.58
33425,2098.86
33428,2085.93
33431,2069.10
33434,2068.01
33437,2085.47
33440,2104.57
33443,2107.87
33446,2097.09
33449,2090.55
33453,2101.84
33455,2123.91
33458,2136.98
33461,2130.75
33464,2115.94
33467,2111.63
33470,2123.81
33473,2139.20
33476,2141.66
33479,2131.71
33482,2126.13
33485,2138.08
33488,2160.63
33491,2173.19
33494,2163.71
33497,2141.87
33500,2127.98
33503,2130.54
33506,2137.73
33509,2132.35
33512,2112.57
33515,2094.55
33518,2094.07
33521,2107.92
33524,2116.90
33527,2107.38
33530,2086.46
33533,2073.86
33536,2079.57
33539,2092.79
33542,2094.66
33545,2080.23
33548,2063.96
33551,2062.96
33554,2077.02
33557,2088.52
33560,2082.63
33563,2064.49
33566,2053.63
33569,2061.92
33572,2080.13
33575,2088.71
33578,2080.16
33581,2067.34
33584,2068.31
33587,2085.00
33590,2100.30
33593,2097.28
33596,2078.16
33599,2061.93
33602,2063.29
33605,2077.98
33608,2091.89
33611,2103.75
33614,2135.17
33617,2215.84
33620,2359.04
33623,2553.43
33626,2776.69
33629,3009.03
33632,3229.39
33635,3399.80
33638,3463.58
33641,3372.52
33644,3124.23
33647,2775.24
33650,2413.38
33653,2110.99
33656,1897.14
33659,1766.21
33662,1704.50
33665,1704.48
33668,1755.76
33671,1833.76
33674,1905.82
33677,1951.36
33680,1975.00
33683,1996.15
33686,2025.47
33689,2053.83
33692,2065.04
33695,2056.95
33698,2046.27
33701,2051.27
33704,2072.10
33707,2091.12
33710,2093.43
33713,2083.73
33716,2080.61
33719,2094.96
33722,2117.21
33725,2128.13
33728,2120.67
33731,2108.13
33734,2108.90
33737,2125.67
33740,2142.48
33743,2143.30
33746,2130.51
33749,2122.10
33752,2130.85
33755,2149.43
33758,2158.83
33761,2150.41
33764,2136.49
33766,2136.38
33769,2154.50
33772,2174.69
33775,2177.60
33778,2162.84
33781,2150.70
33784,2160.82
33787,2190.55
33790,2217.30
33793,2221.84
33796,2207.92
33799,2197.07
33802,2204.79
33805,2224.74
33808,2237.55
33811,2233.49
33814,2223.09
33817,2225.05
33820,2244.39
33823,2266.67
33826,2274.71
33829,2268.33
33832,2264.36
33835,2277.20
33838,2302.00
33841,2319.95
33844,2319.99
33847,2311.73
33850,2314.79
33853,2336.48
33856,2363.38
33859,2376.71
33862,2373.77
33866,2370.82
33868,2384.32
33871,2411.87
33874,2434.87
33877,2439.74
33880,2433.20
33883,2434.29
33886,2451.77
33889,2473.46
33892,2479.67
33895,2465.62
33898,2447.22
33901,2443.51
33904,2455.49
33907,2465.64
33910,2457.92
33912,2435.65
33915,2416.44
33918,2410.51
33921,2407.37
33924,2386.51
33927,2341.44
33930,2289.45
33933,2255.37
33936,2245.95
33939,2242.71
33942,2221.14
33945,2175.98
33948,2125.48
33951,2090.79
33954,2074.02
33957,2058.39
33960,2029.22
33963,1991.22
33966,1963.34
33969,1956.57
33972,1961.15
33975,1957.45
33978,1938.22
33981,1916.90
33984,1912.01
33987,1925.66
33990,1940.83
33993,1940.61
33996,1927.01
33999,1918.10
34002,1926.63
34005,1944.93
34008,1953.63
34011,1943.89
34014,1928.02
34017,1925.70
34020,1941.82
34023,1960.97
34026,1965.00
34029,1953.82
34032,1945.12
34035,1953.92
34038,1975.09
34041,1989.09
34044,1984.23
34047,1970.20
34050,1966.83
34053,1981.57
34056,2000.94
34059,2006.06
34062,1994.45
34065,1982.94
34068,1988.58
34071,2009.10
34073,2025.53
34076,2023.69
34079,2010.48
34082,2006.68
34085,2023.25
34088,2047.84
34091,2057.18
34094,2042.02
34097,2017.54
34100,2007.67
34103,2020.00
34106,2038.98
34109,2044.13
34112,2032.59
34115,2021.09
34118,2026.19
34121,2045.22
34124,2059.02
34127,2053.75
34130,2036.63
34133,2027.57
34136,2036.46
34139,2051.98
34142,2054.79
34145,2040.13
34148,2023.67
34151,2023.63
34154,2040.20
34157,2055.17
34160,2052.70
34163,2037.25
34166,2028.18
34169,2037.47
34173,2055.99
34175,2063.81
34178,2053.21
34181,2036.75
34184,2032.54
34187,2043.11
34190,2052.83
34193,2046.68
34196,2028.57
34199,2017.66
34202,2026.96
34205,2048.01
34208,2059.99
34211,2052.66
34214,2037.41
34217,2033.81
34220,2046.96
34223,2061.95
34226,2061.38
34229,2045.23
34232,2031.46
34235,2035.33
34238,2052.14
34241,2062.79
34244,2055.64
34247,2039.81
34250,2034.65
34253,2047.24
34256,2064.13
34259,2066.59
34262,2052.12
34265,2037.36
34268,2039.32
34272,2056.42
34274,2070.33
34277,2067.45
34280,2053.97
34283,2047.79
34286,2057.42
34289,2071.75
34292,2073.08
34295,2058.28
34298,2043.22
34301,2045.14
34304,2062.70
34307,2076.99
34310,2072.59
34313,2054.91
34316,2044.07
34319,2052.20
34322,2069.73
34325,2076.97
34328,2066.33
34331,2051.02
34334,2049.71
34337,2064.84
34340,2079.91
34343,2078.35
34346,2062.79
34349,2052.18
34352,2060.04
34355,2078.96
34358,2088.81
34361,2079.47
34364,2062.24
34367,2056.78
34370,2068.75
34373,2083.58
34376,2083.66
34379,2068.82
34382,2056.65
34385,2062.22
34388,2080.64
34391,2092.66
34394,2086.88
34397,2072.80
34400,2070.20
34403,2086.63
34406,2108.50
34409,2116.39
34412,2106.98
34415,2096.27
34418,2100.96
34421,2119.15
34424,2132.55
34427,2127.80
34430,2112.18
34433,2105.48
34436,2117.78
34439,2138.19
34442,2147.37
34445,2139.55
34448,2128.69
34451,2131.65
34454,2148.02
34457,2159.85
34460,2151.79
34463,2128.65
34466,2110.13
34469,2108.86
34472,2116.69
34475,2115.27
34478,2098.04
34481,2078.39
34484,2074.43
34487,2087.78
34490,2100.96
34493,2096.96
34496,2078.38
34499,2064.41
34502,2069.20
34505,2085.63
34508,2093.50
34511,2082.51
34514,2063.72
34517,2056.58
34520,2066.58
34523,2079.16
34526,2076.90
34529,2060.03
34532,2046.59
34535,2051.90
34538,2071.01
34541,2084.13
34544,2078.65
34547,2062.90
34550,2055.81
34553,2064.67
34556,2076.48
34559,2073.14
34562,2053.42
34565,2036.95
34568,2046.12
34571,2087.60
34574,2154.10
34577,2243.60
34580,2372.13
34583,2560.74
34585,2807.25
34588,3070.85
34591,3287.83
34594,3405.00
34597,3401.70
34600,3285.83
34603,3075.65
34606,2791.98
34609,2466.85
34612,2151.57
34615,1904.28
34618,1761.31
34621,1716.79
34624,1732.38
34627,1769.08
34630,1810.94
34633,1861.44
34636,1921.20
34639,1975.76
34642,2006.39
34645,2010.46
34648,2006.01
34651,2013.54
34654,2035.15
34657,2054.41
34660,2056.84
34663,2047.40
34666,2045.16
34669,2061.30
34672,2085.89
34675,2098.94
34678,2093.11
34681,2082.10
34685,2085.01
34687,2104.69
34690,2124.60
34693,2127.60
34696,2115.24
34699,2105.69
34702,2112.99
34705,2131.42
34708,2142.78
34711,2137.71
34714,2126.47
34717,2126.70
34720,2142.32
34723,2158.69
34726,2159.49
34729,2146.26
34732,2137.49
34735,2147.98
34738,2171.74
34741,2188.17
34744,2184.76
34747,2170.94
34750,2167.26
34753,2182.30
34756,2203.46
34759,2211.75
34762,2203.81
34765,2195.52
34768,2203.59
34771,2226.20
34774,2244.84
34777,2245.40
34780,2234.10
34784,2230.06
34786,2243.54
34789,2264.67
34792,2275.44
34795,2271.14
34798,2266.05
34801,2277.00
34804,2303.71
34807,2328.71
34810,2337.12
34813,2333.54
34816,2336.61
34819,2357.38
34822,2386.42
34825,2404.57
34828,2404.95
34831,2400.63
34834,2409.62
34837,2433.64
34840,2455.81
34843,2459.80
34846,2448.57
34849,2441.17
34852,2451.14
34855,2471.12
34858,2481.31
34861,2472.06
34864,2454.80
34867,2448.54
34870,2457.51
34873,2465.72
34876,2454.52
34879,2423.37
34882,2390.17
34885,2370.38
34888,2359.49
34891,2338.44
34894,2296.09
34897,2242.76
34900,2199.52
34903,2175.40
34906,2158.24
34910,2129.36
34912,2085.40
34915,2042.02
34918,2016.11
34921,2006.67
34924,1996.69
34927,1973.53
34930,1943.80
34933,1925.52
34936,1926.80
34939,1935.62
34942,1933.23
34945,1915.30
34948,1897.06
34951,1895.89
34954,1911.39
34957,1925.61
34960,1923.51
34963,1909.90
34966,1903.97
34969,1917.03
34972,1939.39
34975,1951.31
34978,1945.20
34981,1933.90
34984,1935.42
34987,1951.98
34990,1967.68
34993,1967.04
34996,1953.55
34999,1946.04
35002,1957.32
35005,1979.03
35008,1990.65
35011,1982.32
35014,1966.27
35017,1963.07
35020,1978.95
35023,1999.53
35026,2006.62
35029,1998.97
35032,1992.85
35035,2002.46
35038,2022.80
35041,2034.92
35044,2027.60
35047,2010.44
35050,2003.36
35053,2014.21
35056,2030.37
35059,2033.84
35062,2022.23
35065,2011.54
35068,2017.32
35071,2036.21
35074,2049.07
35077,2042.61
35080,2024.59
35083,2015.22
35086,2024.51
35089,2041.28
35092,2046.35
35095,2034.82
35097,2021.67
35100,2024.17
35103,2041.48
35106,2054.10
35109,2045.18
35112,2020.38
35115,2003.38
35118,2011.65
35121,2037.96
35124,2058.33
35127,2057.13
35130,2042.58
35133,2035.79
35136,2046.69
35139,2063.49
35142,2066.86
35145,2051.98
35148,2034.35
35151,2032.40
35154,2046.76
35157,2060.11
35160,2057.19
35163,2042.17
35166,2033.43
35169,2041.91
35172,2058.21
35175,2063.25
35178,2050.56
35181,2034.04
35184,2032.60
35187,2048.57
35190,2065.10
35193,2064.95
35197,2049.81
35199,2037.98
35202,2042.87
35205,2058.26
35208,2066.15
35211,2058.19
35214,2045.57
35217,2045.99
35220,2062.41
35223,2078.82
35226,2077.98
35229,2061.37
35232,2048.03
35235,2053.29
35238,2071.63
35241,2082.85
35244,2074.89
35247,2057.40
35250,2050.22
35253,2061.34
35256,2077.84
35259,2081.26
35262,2068.73
35265,2056.08
35268,2059.32
35271,2076.05
35274,2088.20
35277,2083.04
35280,2067.93
35283,2061.86
35286,2073.54
35289,2091.01
35292,2095.05
35296,2081.14
35298,2064.96
35301,2064.54
35304,2080.46
35307,2095.79
35310,2095.76
35313,2084.87
35316,2081.09
35319,2094.49
35322,2114.86
35325,2122.99
35328,2112.79
35331,2098.79
35334,2099.99
35337,2118.45
35340,2136.81
35343,2137.97
35346,2124.66
35349,2116.04
35352,2126.33
35355,2148.43
35358,2162.17
35361,2156.97
35364,2143.42
35367,2140.29
35370,2152.37
35373,2164.37
35376,2158.53
35379,2135.25
35382,2113.20
35385,2108.85
35388,2118.24
35391,2122.25
35394,2108.86
35397,2086.89
35400,2075.69
35403,2082.74
35406,2094.98
35409,2093.80
35412,2076.44
35415,2059.08
35418,2058.15
35421,2071.38
35424,2080.63
35427,2072.97
35430,2055.84
35433,2048.64
35436,2060.26
35439,2078.22
35442,2082.47
35445,2067.89
35448,2050.13
35451,2048.06
35454,2062.73
35457,2076.93
35460,2075.38
35463,2062.25
35466,2055.61
35469,2065.66
35472,2081.93
35475,2084.72
35478,2067.96
35481,2047.99
35484,2048.33
35487,2078.54
35490,2131.95
35493,2203.31
35496,2305.86
35499,2464.08
35502,2686.36
35505,2944.38
35508,3180.72
35511,3337.55
35514,3380.47
35517,3301.47
35520,3109.07
35523,2824.69
35526,2488.90
35529,2162.88
35532,1909.87
35535,1765.02
35538,1718.82
35541,1731.04
35544,1764.06
35547,1804.69
35550,1857.18
35553,1920.70
35556,1979.01
35559,2013.54
35562,2022.91
35565,2025.02
35568,2037.98
35571,2061.28
35574,2078.26
35577,2076.99
35580,2065.42
35583,2063.28
35586,2080.05
35589,2104.23
35592,2116.41
35595,2111.20
35598,2102.85
35601,2108.25
35604,2126.96
35608,2141.59
35610,2137.91
35613,2121.98
35616,2113.80
35619,2125.04
35622,2145.98
35625,2156.45
35628,2148.77
35631,2136.13
35634,2137.32
35637,2155.19
35640,2173.65
35643,2176.35
35646,2165.62
35649,2159.71
35652,2171.47
35655,2193.15
35658,2204.97
35661,2197.86
35664,2183.81
35667,2182.82
35670,2200.25
35673,2221.03
35676,2226.90
35679,2217.24
35682,2209.48
35685,2218.92
35688,2241.11
35691,2257.01
35694,2255.05
35697,2244.59
35700,2245.42
35703,2265.21
35706,2290.89
35709,2303.49
35712,2299.67
35715,2295.18
35718,2306.31
35721,2331.20
35724,2352.14
35727,2356.53
35730,2351.82
35733,2357.25
35736,2381.52
35739,2412.35
35742,2429.89
35745,2428.94
35748,2424.54
35751,2434.38
35754,2458.24
35757,2477.92
35760,2477.99
35763,2463.51
35766,2454.60
35769,2463.73
35772,2481.99
35775,2489.59
35778,2478.40
35781,2460.88
35784,2454.98
35787,2462.76
35790,2467.35
35793,2451.84
35796,2418.48
35799,2386.03
35802,2368.21
35805,2358.19
35808,2336.50
35810,2293.96
35813,2242.66
35816,2202.79
35819,2180.05
35822,2159.06
35825,2120.91
35828,2065.79
35831,2015.07
35834,1989.73
35837,1988.30
35840,1988.72
35843,1971.98
35846,1941.83
35849,1919.35
35852,1918.61
35855,1931.02
35858,1935.24
35861,1920.90
35864,1900.14
35867,1893.67
35870,1907.57
35873,1926.79
35876,1932.27
35879,1922.19
35882,1913.05
35885,1919.86
35888,1938.56
35891,1950.88
35894,1945.99
35897,1933.53
35900,1932.72
35903,1950.20
35906,1971.78
35910,1978.10
35912,1966.40
35915,1953.43
35918,1956.70
35921,1975.02
35924,1990.65
35927,1990.14
35930,1979.81
35933,1977.97
35936,1993.03
35939,2013.18
35942,2019.43
35945,2007.42
35948,1992.80
35951,1993.72
35954,2010.58
35957,2025.92
35960,2024.61
35963,2011.19
35966,2004.42
35969,2015.38
35972,2034.49
35975,2042.47
35978,2032.66
35981,2019.10
35984,2020.63
35987,2039.27
35990,2057.42
35993,2057.49
35996,2041.41
35999,2028.21
36002,2032.53
36005,2048.38
36008,2056.76
36011,2047.86
36014,2032.23
36017,2028.35
36020,2041.07
36023,2055.67
36026,2054.83
36029,2038.75
36032,2025.32
36035,2029.88
36038,2047.73
36041,2059.47
36044,2052.90
36047,2036.80
36050,2030.60
36053,2042.20
36056,2059.04
36059,2062.82
36062,2050.36
36065,2037.14
36068,2039.14
36071,2054.03
36074,2063.77
36077,2055.45
36080,2036.57
36083,2026.98
36086,2036.32
36089,2053.25
36092,2058.45
36095,2046.72
36098,2032.69
36101,2033.79
36104,2049.98
36107,2063.64
36110,2059.70
36113,2043.17
36116,2033.71
36119,2043.03
36121,2061.26
36124,2067.90
36127,2055.23
36130,2037.95
36133,2037.54
36136,2058.34
36139,2081.46
36142,2084.27
36145,2064.29
36148,2041.61
36151,2037.32
36154,2051.57
36157,2064.93
36160,2060.90
36163,2044.15
36166,2034.33
36169,2043.45
36172,2062.22
36175,2070.54
36178,2060.24
36181,2044.05
36184,2040.83
36187,2054.04
36190,2068.34
36193,2067.77
36196,2054.46
36199,2046.18
36202,2055.61
36205,2075.24
36208,2085.60
36211,2077.44
36214,2062.40
36218,2059.80
36220,2074.58
36223,2091.74
36226,2093.50
36229,2079.48
36232,2066.98
36235,2071.13
36238,2087.86
36241,2099.18
36244,2094.53
36247,2083.52
36250,2085.01
36253,2105.10
36256,2129.13
36259,2137.38
36262,2126.72
36265,2113.77
36268,2115.93
36271,2132.27
36274,2145.69
36277,2143.41
36280,2131.93
36283,2129.19
36286,2143.00
36289,2161.06
36292,2164.14
36295,2147.69
36298,2127.13
36301,2120.36
36304,2127.64
36307,2131.72
36310,2118.46
36313,2094.05
36316,2078.87
36320,2084.96
36322,2102.15
36326,2109.36
36328,2097.15
36331,2077.11
36334,2067.58
36337,2072.61
36340,2078.20
36343,2070.13
36346,2051.66
36349,2040.82
36352,2049.64
36355,2069.57
36358,2080.47
36361,2072.88
36364,2058.61
36367,2056.98
36370,2072.43
36373,2089.69
36376,2090.74
36379,2075.88
36382,2063.35
36385,2068.54
36388,2086.06
36391,2095.50
36394,2084.17
36397,2061.33
36400,2047.78
36403,2052.99
36406,2066.64
36409,2074.32
36412,2079.98
36415,2108.75
36418,2187.61
36421,2323.88
36424,2505.08
36427,2716.55
36430,2949.51
36433,3187.26
36436,3385.93
36439,3478.24
36442,3409.09
36445,3175.53
36448,2835.27
36451,2474.13
36454,2160.62
36457,1924.68
36460,1769.23
36463,1691.49
36466,1688.31
36469,1743.86
36472,1824.36
36475,1893.37
36478,1934.28
36481,1957.48
36484,1982.60
36487,2014.95
36490,2041.26
36493,2047.74
36496,2038.92
36499,2034.83
36502,2049.45
36505,2075.47
36508,2092.67
36511,2090.64
36514,2080.40
36517,2081.44
36520,2099.31
36523,2119.55
36526,2124.44
36529,2113.67
36532,2104.71
36535,2112.56
36538,2132.39
36541,2144.98
36544,2138.94
36547,2124.35
36550,2121.55
36553,2138.38
36556,2160.95
36559,2169.07
36562,2158.85
36565,2146.43
36568,2149.52
36571,2167.48
36574,2182.63
36577,2181.20
36580,2169.24
36583,2165.35
36586,2179.12
36589,2199.82
36592,2208.76
36595,2200.86
36598,2190.52
36601,2195.15
36604,2214.88
36607,2232.56
36610,2233.51
36613,2222.57
36616,2218.93
36619,2234.11
36622,2258.74
36625,2273.04
36628,2269.35
36631,2261.04
36633,2267.02
36636,2290.26
36639,2313.87
36642,2319.78
36645,2309.85
36648,2304.84
36651,2322.24
36654,2356.80
36657,2385.39
36660,2391.17
36663,2380.79
36666,2376.16
36669,2390.47
36672,2414.75
36675,2429.45
36678,2426.85
36681,2419.16
36684,2424.18
36687,2444.26
36690,2463.41
36693,2465.76
36696,2453.84
36699,2445.80
36702,2454.34
36705,2471.89
36708,2478.67
36711,2464.89
36714,2441.44
36717,2426.93
36720,2425.87
36723,2423.03
36726,2400.50
36730,2358.22
36732,2314.31
36735,2284.82
36738,2266.16
36741,2240.21
36744,2196.14
36747,2144.05
36750,2104.49
36753,2085.95
36756,2075.83
36759,2055.18
36762,2020.15
36765,1985.77
36768,1968.26
36771,1966.05
36774,1962.05
36777,1943.96
36780,1919.20
36783,1906.62
36786,1914.60
36789,1930.71
36792,1935.25
36795,1923.35
36798,1910.10
36801,1912.85
36804,1930.85
36807,1945.75
36810,1942.39
36813,1926.29
36816,1917.89
36819,1929.40
36822,1951.12
36825,1962.47
36828,1955.27
36832,1942.67
36834,1944.29
36837,1963.88
36840,1985.97
36843,1993.85
36846,1988.49
36849,1986.36
36852,1999.20
36855,2019.26
36858,2027.56
36861,2016.08
36864,1997.97
36867,1993.73
36870,2008.68
36873,2027.38
36876,2031.11
36879,2018.74
36882,2007.50
36885,2012.45
36888,2029.50
36891,2040.01
36894,2032.85
36897,2017.51
36900,2013.52
36903,2028.05
36906,2047.38
36910,2052.42
36912,2040.26
36915,2027.36
36918,2030.62
36921,2048.20
36924,2061.54
36927,2056.76
36930,2040.46
36933,2031.89
36936,2040.92
36939,2056.49
36942,2059.87
36945,2046.22
36948,2030.29
36951,2029.45
36954,2043.65
36957,2055.45
36960,2050.28
36963,2033.23
36966,2023.49
36969,2032.14
36972,2049.12
36975,2054.58
36978,2041.55
36981,2024.12
36984,2021.59
36987,2036.61
36990,2052.26
36993,2051.32
36996,2035.79
36999,2024.44
37002,2031.32
37005,2049.70
37008,2059.91
37011,2051.62
37014,2035.46
37017,2030.51
37020,2042.43
37023,2057.34
37026,2058.27
37029,2044.96
37032,2034.20
37035,2040.41
37038,2058.61
37041,2070.00
37044,2063.29
37047,2047.73
37050,2042.40
37053,2054.25
37056,2070.11
37059,2071.87
37062,2057.65
37065,2044.16
37068,2047.69
37071,2065.20
37074,2077.42
37077,2070.52
37080,2051.86
37083,2041.65
37086,2050.12
37089,2066.17
37092,2070.43
37095,2057.50
37098,2042.40
37101,2043.24
37104,2060.63
37107,2076.93
37110,2076.32
37113,2062.64
37116,2054.30
37119,2062.82
37122,2079.37
37125,2085.07
37128,2073.18
37131,2057.27
37134,2055.95
37137,2071.51
37140,2087.06
37143,2085.79
37145,2070.18
37148,2059.04
37151,2065.91
37154,2082.74
37157,2087.87
37160,2070.42
37163,2043.89
37166,2033.59
37169,2050.15
37172,2078.21
37175,2092.51
37178,2083.77
37181,2066.93
37184,2063.33
37187,2077.69
37190,2094.32
37193,2096.03
37196,2083.63
37199,2074.46
37202,2081.98
37205,2100.14
37208,2110.72
37211,2104.74
